('21-03-08 00:42:35.36948', 70, 118, 145, 129, 121, 62, 86, 58)
('21-03-08 00:42:35.38525', 56, 98, 124, 105, 94, 54, 71, 54)
('21-03-08 00:42:35.40743', 48, 79, 98, 91, 91, 46, 64, 46)
('21-03-08 00:42:35.42962', 52, 69, 76, 78, 80, 46, 45, 46)
('21-03-08 00:42:35.44450', 69, 85, 68, 65, 78, 44, 41, 54)
('21-03-08 00:42:35.46653', 79, 81, 48, 50, 60, 45, 39, 64)
('21-03-08 00:42:35.48927', 81, 81, 46, 51, 62, 51, 38, 68)
('21-03-08 00:42:35.50388', 87, 83, 45, 56, 65, 52, 41, 70)
('21-03-08 00:42:35.52857', 85, 83, 44, 57, 64, 51, 42, 71)
('21-03-08 00:42:35.54917', 69, 56, 43, 57, 65, 52, 41, 65)
('21-03-08 00:42:35.56551', 57, 53, 43, 58, 71, 50, 45, 57)
('21-03-08 00:42:35.58671', 54, 55, 41, 60, 71, 43, 46, 54)
('21-03-08 00:42:35.60957', 45, 54, 45, 57, 70, 49, 42, 54)
('21-03-08 00:42:35.63212', 49, 59, 47, 56, 74, 51, 43, 55)
('21-03-08 00:42:35.64922', 48, 66, 55, 57, 73, 58, 44, 63)
('21-03-08 00:42:35.66927', 58, 66, 59, 66, 75, 64, 39, 73)
('21-03-08 00:42:35.69260', 67, 73, 58, 62, 76, 71, 39, 72)
('21-03-08 00:42:35.70687', 96, 76, 58, 59, 70, 80, 41, 73)
('21-03-08 00:42:35.73019', 121, 87, 63, 60, 71, 94, 42, 71)
('21-03-08 00:42:35.75181', 132, 96, 55, 57, 69, 93, 48, 63)
('21-03-08 00:42:35.77430', 129, 107, 52, 47, 68, 94, 49, 50)
('21-03-08 00:42:35.78929', 130, 108, 56, 50, 77, 97, 47, 53)
('21-03-08 00:42:35.82196', 122, 109, 59, 51, 77, 86, 45, 50)
('21-03-08 00:42:35.82696', 98, 107, 53, 53, 75, 75, 45, 51)
('21-03-08 00:42:35.84929', 87, 96, 56, 52, 80, 71, 37, 49)
('21-03-08 00:42:35.87284', 88, 84, 56, 52, 71, 63, 37, 48)
('21-03-08 00:42:35.88767', 85, 75, 54, 51, 60, 49, 37, 46)
('21-03-08 00:42:35.91349', 74, 69, 55, 47, 61, 50, 40, 47)
('21-03-08 00:42:35.93200', 73, 57, 55, 48, 63, 42, 38, 50)
('21-03-08 00:42:35.94640', 72, 57, 55, 57, 71, 46, 40, 50)
('21-03-08 00:42:35.96931', 71, 62, 65, 58, 73, 55, 40, 49)
('21-03-08 00:42:35.99344', 67, 57, 66, 58, 71, 60, 43, 47)
('21-03-08 00:42:36.00663', 66, 57, 60, 62, 77, 62, 41, 50)
('21-03-08 00:42:36.02926', 78, 52, 61, 56, 74, 65, 43, 47)
('21-03-08 00:42:36.05268', 83, 51, 64, 54, 70, 62, 45, 48)
('21-03-08 00:42:36.06722', 80, 42, 55, 56, 73, 62, 45, 51)
('21-03-08 00:42:36.08952', 77, 47, 58, 55, 77, 69, 43, 51)
('21-03-08 00:42:36.11182', 73, 50, 62, 53, 70, 66, 45, 46)
('21-03-08 00:42:36.12649', 54, 50, 67, 54, 64, 65, 43, 51)
('21-03-08 00:42:36.15328', 40, 55, 68, 50, 61, 72, 43, 51)
('21-03-08 00:42:36.17158', 38, 58, 67, 44, 59, 66, 43, 45)
('21-03-08 00:42:36.18679', 39, 58, 71, 43, 60, 55, 44, 49)
('21-03-08 00:42:36.20927', 45, 62, 73, 44, 67, 60, 43, 50)
('21-03-08 00:42:36.23249', 48, 64, 66, 42, 70, 56, 49, 43)
('21-03-08 00:42:36.24787', 51, 62, 59, 44, 68, 49, 48, 44)
('21-03-08 00:42:36.27783', 57, 62, 61, 47, 68, 60, 47, 50)
('21-03-08 00:42:36.29316', 56, 63, 52, 50, 62, 75, 48, 45)
('21-03-08 00:42:36.31432', 50, 66, 45, 49, 60, 75, 51, 47)
('21-03-08 00:42:36.33678', 52, 66, 48, 52, 59, 75, 46, 54)
('21-03-08 00:42:36.35208', 48, 69, 51, 55, 61, 74, 48, 52)
('21-03-08 00:42:36.37547', 48, 69, 51, 53, 68, 70, 46, 53)
('21-03-08 00:42:36.39831', 68, 70, 53, 50, 71, 53, 46, 57)
('21-03-08 00:42:36.42013', 96, 81, 74, 52, 77, 60, 45, 57)
('21-03-08 00:42:36.43421', 179, 85, 71, 53, 84, 74, 51, 53)
('21-03-08 00:42:36.45677', 189, 86, 69, 50, 86, 78, 47, 57)
('21-03-08 00:42:36.47218', 190, 88, 70, 52, 81, 76, 47, 50)
('21-03-08 00:42:36.49659', 190, 93, 69, 54, 83, 80, 48, 54)
('21-03-08 00:42:36.52090', 183, 81, 52, 53, 75, 74, 45, 52)
('21-03-08 00:42:36.53556', 106, 80, 54, 52, 70, 64, 39, 55)
('21-03-08 00:42:36.56680', 92, 90, 52, 51, 71, 66, 40, 50)
('21-03-08 00:42:36.58640', 90, 91, 58, 52, 72, 65, 42, 54)
('21-03-08 00:42:36.59502', 82, 84, 58, 50, 72, 60, 37, 49)
('21-03-08 00:42:36.61469', 80, 83, 52, 50, 72, 59, 37, 53)
('21-03-08 00:42:36.63773', 91, 81, 61, 49, 69, 92, 35, 56)
('21-03-08 00:42:36.65238', 87, 73, 80, 49, 64, 127, 44, 58)
('21-03-08 00:42:36.67432', 106, 100, 87, 46, 68, 141, 45, 64)
('21-03-08 00:42:36.69675', 110, 111, 97, 48, 73, 151, 50, 61)
('21-03-08 00:42:36.71134', 128, 125, 98, 52, 77, 156, 52, 59)
('21-03-08 00:42:36.73386', 132, 130, 93, 59, 84, 139, 53, 52)
('21-03-08 00:42:36.75716', 140, 138, 81, 59, 86, 110, 48, 51)
('21-03-08 00:42:36.77189', 133, 122, 74, 64, 84, 93, 47, 44)
('21-03-08 00:42:36.79480', 126, 112, 59, 63, 81, 81, 46, 51)
('21-03-08 00:42:36.81625', 119, 97, 65, 63, 77, 69, 46, 51)
('21-03-08 00:42:36.83238', 162, 95, 70, 56, 74, 70, 47, 52)
('21-03-08 00:42:36.85497', 164, 98, 72, 59, 79, 71, 49, 54)
('21-03-08 00:42:36.88595', 167, 101, 69, 57, 76, 77, 52, 53)
('21-03-08 00:42:36.89270', 173, 107, 74, 60, 83, 74, 51, 49)
('21-03-08 00:42:36.91378', 169, 105, 70, 59, 91, 82, 49, 48)
('21-03-08 00:42:36.93710', 140, 99, 77, 59, 89, 96, 47, 52)
('21-03-08 00:42:36.95194', 144, 77, 76, 54, 92, 91, 44, 49)
('21-03-08 00:42:36.97538', 138, 68, 73, 55, 90, 101, 45, 50)
('21-03-08 00:42:36.99755', 164, 80, 81, 54, 88, 134, 45, 50)
('21-03-08 00:42:37.02005', 179, 106, 98, 59, 89, 133, 49, 64)
('21-03-08 00:42:37.03381', 178, 141, 90, 60, 91, 123, 53, 63)
('21-03-08 00:42:37.05818', 195, 149, 84, 60, 83, 130, 53, 63)
('21-03-08 00:42:37.07973', 207, 156, 85, 59, 89, 123, 56, 62)
('21-03-08 00:42:37.09467', 217, 145, 72, 56, 87, 86, 56, 62)
('21-03-08 00:42:37.11626', 221, 129, 46, 50, 83, 81, 54, 46)
('21-03-08 00:42:37.14083', 239, 92, 47, 47, 79, 80, 56, 46)
('21-03-08 00:42:37.15416', 225, 76, 55, 50, 78, 69, 57, 46)
('21-03-08 00:42:37.17802', 215, 61, 69, 50, 78, 62, 50, 46)
('21-03-08 00:42:37.19946', 187, 60, 72, 54, 77, 59, 49, 44)
('21-03-08 00:42:37.21432', 162, 63, 70, 54, 73, 62, 47, 44)
('21-03-08 00:42:37.24584', 118, 65, 75, 55, 75, 70, 42, 43)
('21-03-08 00:42:37.26102', 111, 67, 74, 51, 75, 73, 48, 41)
('21-03-08 00:42:37.27506', 136, 72, 61, 53, 74, 81, 48, 51)
('21-03-08 00:42:37.29823', 141, 81, 60, 50, 67, 82, 50, 85)
('21-03-08 00:42:37.32066', 148, 85, 65, 51, 67, 99, 62, 129)
('21-03-08 00:42:37.33431', 150, 98, 69, 52, 65, 108, 62, 139)
('21-03-08 00:42:37.35742', 146, 97, 78, 56, 73, 110, 55, 144)
('21-03-08 00:42:37.37981', 122, 103, 80, 57, 74, 158, 60, 141)
('21-03-08 00:42:37.39400', 113, 110, 92, 56, 77, 192, 58, 128)
('21-03-08 00:42:37.41795', 115, 123, 98, 61, 92, 187, 53, 103)
('21-03-08 00:42:37.43953', 116, 118, 94, 65, 104, 185, 54, 95)
('21-03-08 00:42:37.45428', 140, 127, 86, 63, 105, 183, 58, 95)
('21-03-08 00:42:37.47783', 155, 121, 83, 61, 104, 142, 50, 98)
('21-03-08 00:42:37.49981', 160, 109, 69, 61, 110, 112, 51, 97)
('21-03-08 00:42:37.51483', 158, 114, 59, 56, 106, 129, 47, 87)
('21-03-08 00:42:37.53636', 178, 170, 52, 53, 124, 264, 46, 102)
('21-03-08 00:42:37.56051', 202, 185, 49, 56, 130, 330, 43, 130)
('21-03-08 00:42:37.58227', 194, 191, 63, 66, 143, 339, 61, 131)
('21-03-08 00:42:37.59656', 185, 198, 67, 70, 143, 338, 65, 130)
('21-03-08 00:42:37.61977', 177, 186, 69, 71, 143, 331, 62, 124)
('21-03-08 00:42:37.63421', 150, 130, 69, 73, 128, 240, 61, 110)
('21-03-08 00:42:37.65851', 79, 110, 67, 71, 118, 143, 63, 85)
('21-03-08 00:42:37.68179', 67, 97, 58, 60, 101, 117, 48, 84)
('21-03-08 00:42:37.69671', 62, 93, 52, 52, 95, 101, 45, 85)
('21-03-08 00:42:37.71723', 60, 92, 45, 49, 90, 92, 47, 83)
('21-03-08 00:42:37.73925', 56, 97, 45, 48, 74, 69, 44, 82)
('21-03-08 00:42:37.75418', 48, 87, 50, 47, 72, 48, 43, 60)
('21-03-08 00:42:37.77774', 42, 81, 47, 56, 70, 76, 41, 56)
('21-03-08 00:42:37.79969', 42, 74, 49, 60, 70, 89, 38, 52)
('21-03-08 00:42:37.81575', 49, 70, 49, 63, 65, 93, 35, 57)
('21-03-08 00:42:37.83672', 54, 73, 51, 60, 77, 144, 40, 59)
('21-03-08 00:42:37.85912', 61, 75, 55, 61, 85, 170, 44, 70)
('21-03-08 00:42:37.87403', 67, 83, 53, 51, 89, 161, 46, 72)
('21-03-08 00:42:37.89880', 73, 87, 55, 50, 89, 165, 47, 75)
('21-03-08 00:42:37.91950', 79, 97, 53, 54, 93, 166, 48, 75)
('21-03-08 00:42:37.94243', 81, 93, 52, 53, 92, 128, 54, 75)
('21-03-08 00:42:37.95637', 87, 94, 49, 54, 83, 103, 50, 67)
('21-03-08 00:42:37.97896', 84, 93, 54, 56, 82, 108, 52, 67)
('21-03-08 00:42:38.00259', 89, 92, 51, 58, 85, 97, 55, 64)
('21-03-08 00:42:38.01795', 79, 82, 54, 50, 78, 93, 55, 61)
('21-03-08 00:42:38.03948', 75, 80, 59, 47, 73, 97, 48, 62)
('21-03-08 00:42:38.06226', 62, 78, 55, 42, 74, 89, 49, 60)
('21-03-08 00:42:38.07759', 64, 76, 51, 45, 68, 79, 46, 57)
('21-03-08 00:42:38.09925', 50, 66, 52, 41, 65, 73, 41, 56)
('21-03-08 00:42:38.12250', 49, 71, 49, 45, 64, 71, 42, 56)
('21-03-08 00:42:38.13643', 49, 75, 43, 47, 66, 64, 43, 50)
('21-03-08 00:42:38.16080', 47, 67, 45, 47, 70, 58, 43, 56)
('21-03-08 00:42:38.18261', 43, 61, 50, 48, 72, 61, 44, 57)
('21-03-08 00:42:38.19671', 43, 62, 49, 49, 69, 64, 45, 55)
('21-03-08 00:42:38.22132', 42, 56, 49, 49, 70, 61, 44, 51)
('21-03-08 00:42:38.24389', 41, 48, 51, 50, 66, 62, 45, 49)
('21-03-08 00:42:38.25776', 44, 46, 50, 53, 67, 72, 48, 40)
('21-03-08 00:42:38.27997', 50, 57, 49, 54, 70, 66, 48, 48)
('21-03-08 00:42:38.30210', 64, 80, 45, 57, 70, 66, 51, 50)
('21-03-08 00:42:38.31707', 65, 84, 44, 56, 70, 66, 50, 53)
('21-03-08 00:42:38.33908', 69, 86, 38, 59, 68, 63, 52, 61)
('21-03-08 00:42:38.36325', 67, 93, 38, 124, 82, 265, 51, 68)
('21-03-08 00:42:38.37764', 142, 202, 41, 158, 98, 302, 52, 121)
('21-03-08 00:42:38.40106', 185, 252, 46, 177, 104, 332, 50, 131)
('21-03-08 00:42:38.42269', 199, 276, 53, 201, 118, 348, 64, 144)
('21-03-08 00:42:38.43633', 202, 281, 54, 206, 123, 357, 63, 162)
('21-03-08 00:42:38.45913', 205, 281, 52, 177, 114, 268, 60, 161)
('21-03-08 00:42:38.48343', 170, 222, 47, 154, 108, 227, 59, 127)
('21-03-08 00:42:38.49644', 127, 173, 44, 141, 103, 207, 60, 126)
('21-03-08 00:42:38.51964', 118, 132, 43, 108, 88, 185, 51, 118)
('21-03-08 00:42:38.54324', 118, 128, 45, 95, 84, 174, 51, 90)
('21-03-08 00:42:38.55703', 116, 128, 49, 102, 92, 159, 56, 94)
('21-03-08 00:42:38.57999', 109, 123, 52, 94, 82, 162, 55, 112)
('21-03-08 00:42:38.60276', 110, 94, 51, 78, 85, 143, 55, 114)
('21-03-08 00:42:38.61637', 94, 91, 47, 73, 87, 133, 51, 108)
('21-03-08 00:42:38.64042', 88, 79, 47, 74, 85, 129, 51, 107)
('21-03-08 00:42:38.66326', 90, 72, 45, 58, 76, 96, 46, 102)
('21-03-08 00:42:38.67821', 84, 52, 43, 50, 76, 92, 45, 76)
('21-03-08 00:42:38.69964', 60, 50, 44, 50, 69, 65, 44, 55)
('21-03-08 00:42:38.72310', 60, 45, 44, 49, 68, 72, 44, 56)
('21-03-08 00:42:38.73741', 54, 44, 41, 47, 63, 67, 46, 49)
('21-03-08 00:42:38.76128', 50, 43, 45, 45, 60, 65, 45, 50)
('21-03-08 00:42:38.78373', 53, 45, 46, 43, 56, 63, 49, 49)
('21-03-08 00:42:38.79641', 52, 42, 43, 41, 58, 57, 49, 49)
('21-03-08 00:42:38.81952', 55, 44, 46, 40, 59, 48, 47, 44)
('21-03-08 00:42:38.84370', 53, 46, 47, 38, 59, 52, 44, 49)
('21-03-08 00:42:38.85732', 49, 55, 46, 41, 65, 57, 47, 48)
('21-03-08 00:42:38.88003', 41, 55, 46, 41, 65, 51, 43, 46)
('21-03-08 00:42:38.90377', 42, 53, 46, 44, 69, 58, 41, 47)
('21-03-08 00:42:38.92496', 37, 54, 42, 44, 67, 58, 42, 45)
('21-03-08 00:42:38.93923', 35, 59, 44, 48, 70, 56, 41, 44)
('21-03-08 00:42:38.96237', 44, 54, 40, 46, 64, 51, 39, 48)
('21-03-08 00:42:38.98456', 48, 57, 38, 48, 62, 53, 41, 51)
('21-03-08 00:42:38.99984', 51, 60, 37, 51, 56, 55, 41, 56)
('21-03-08 00:42:39.02966', 52, 59, 38, 49, 53, 58, 43, 59)
('21-03-08 00:42:39.04567', 52, 54, 35, 51, 47, 62, 47, 59)
('21-03-08 00:42:39.05946', 48, 53, 34, 53, 48, 60, 49, 56)
('21-03-08 00:42:39.08323', 43, 57, 43, 57, 49, 65, 47, 54)
('21-03-08 00:42:39.10596', 46, 57, 47, 51, 49, 58, 46, 54)
('21-03-08 00:42:39.12008', 48, 68, 45, 52, 49, 57, 45, 52)
('21-03-08 00:42:39.14357', 47, 70, 47, 50, 57, 55, 44, 54)
('21-03-08 00:42:39.16720', 48, 70, 48, 49, 64, 56, 47, 52)
('21-03-08 00:42:39.17925', 47, 65, 43, 45, 68, 47, 54, 55)
('21-03-08 00:42:39.20184', 43, 66, 41, 45, 71, 46, 54, 53)
('21-03-08 00:42:39.22710', 40, 53, 46, 46, 73, 47, 54, 56)
('21-03-08 00:42:39.24009', 43, 49, 42, 45, 70, 44, 53, 53)
('21-03-08 00:42:39.26336', 41, 45, 43, 42, 61, 45, 52, 54)
('21-03-08 00:42:39.28495', 40, 45, 48, 39, 57, 49, 46, 48)
('21-03-08 00:42:39.29999', 39, 42, 47, 45, 57, 48, 45, 44)
('21-03-08 00:42:39.32181', 42, 45, 45, 47, 53, 45, 46, 42)
('21-03-08 00:42:39.34536', 45, 46, 50, 47, 52, 44, 48, 40)
('21-03-08 00:42:39.36051', 45, 48, 49, 51, 56, 45, 52, 42)
('21-03-08 00:42:39.38381', 46, 47, 45, 51, 61, 46, 52, 45)
('21-03-08 00:42:39.40586', 51, 50, 47, 46, 60, 52, 52, 48)
('21-03-08 00:42:39.42754', 48, 47, 47, 44, 63, 52, 51, 45)
('21-03-08 00:42:39.44181', 46, 48, 45, 45, 69, 56, 45, 46)
('21-03-08 00:42:39.46490', 47, 52, 47, 42, 69, 53, 43, 44)
('21-03-08 00:42:39.48720', 47, 70, 45, 44, 61, 54, 42, 43)
('21-03-08 00:42:39.50151', 43, 78, 43, 51, 75, 63, 51, 54)
('21-03-08 00:42:39.52611', 42, 90, 41, 56, 74, 63, 50, 60)
('21-03-08 00:42:39.53947', 45, 99, 42, 58, 72, 69, 52, 59)
('21-03-08 00:42:39.56173', 48, 105, 39, 60, 77, 71, 47, 60)
('21-03-08 00:42:39.58497', 53, 95, 42, 61, 78, 74, 47, 62)
('21-03-08 00:42:39.59962', 56, 95, 44, 55, 69, 65, 38, 56)
('21-03-08 00:42:39.62183', 56, 97, 55, 56, 71, 73, 43, 56)
('21-03-08 00:42:39.64498', 55, 93, 54, 54, 68, 69, 44, 63)
('21-03-08 00:42:39.66139', 52, 93, 55, 53, 58, 69, 48, 63)
('21-03-08 00:42:39.68318', 54, 92, 54, 52, 66, 73, 54, 63)
('21-03-08 00:42:39.70487', 52, 84, 51, 66, 73, 87, 58, 56)
('21-03-08 00:42:39.72057', 60, 67, 40, 60, 76, 82, 61, 52)
('21-03-08 00:42:39.74274', 58, 68, 38, 60, 78, 82, 60, 46)
('21-03-08 00:42:39.76580', 61, 54, 42, 63, 85, 83, 59, 51)
('21-03-08 00:42:39.78004', 57, 61, 43, 63, 85, 74, 57, 51)
('21-03-08 00:42:39.80183', 56, 60, 47, 46, 78, 60, 56, 50)
('21-03-08 00:42:39.82494', 49, 63, 49, 47, 76, 58, 54, 52)
('21-03-08 00:42:39.84845', 48, 67, 55, 56, 79, 76, 62, 50)
('21-03-08 00:42:39.86185', 43, 79, 56, 54, 75, 77, 63, 42)
('21-03-08 00:42:39.88541', 39, 74, 56, 54, 73, 80, 61, 40)
('21-03-08 00:42:39.90772', 37, 74, 56, 63, 78, 79, 63, 43)
('21-03-08 00:42:39.92144', 40, 73, 53, 63, 76, 81, 58, 36)
('21-03-08 00:42:39.94700', 40, 62, 50, 55, 72, 59, 49, 37)
('21-03-08 00:42:39.96724', 44, 47, 46, 53, 72, 54, 45, 39)
('21-03-08 00:42:39.98178', 46, 47, 42, 52, 68, 50, 42, 39)
('21-03-08 00:42:40.00446', 49, 50, 39, 47, 63, 50, 40, 38)
('21-03-08 00:42:40.02823', 51, 49, 43, 45, 59, 53, 38, 44)
('21-03-08 00:42:40.04187', 54, 44, 45, 46, 62, 50, 41, 45)
('21-03-08 00:42:40.06666', 54, 42, 43, 43, 56, 55, 41, 44)
('21-03-08 00:42:40.08737', 52, 42, 46, 49, 58, 58, 40, 44)
('21-03-08 00:42:40.10248', 51, 37, 48, 46, 59, 59, 37, 49)
('21-03-08 00:42:40.12587', 50, 38, 46, 52, 70, 53, 42, 46)
('21-03-08 00:42:40.14766', 53, 41, 45, 53, 73, 54, 38, 47)
('21-03-08 00:42:40.16296', 56, 41, 46, 56, 79, 55, 44, 55)
('21-03-08 00:42:40.18483', 56, 40, 46, 54, 79, 55, 46, 53)
('21-03-08 00:42:40.21627', 59, 41, 42, 57, 83, 51, 50, 53)
('21-03-08 00:42:40.22141', 60, 43, 40, 53, 82, 53, 50, 55)
('21-03-08 00:42:40.24495', 56, 58, 40, 53, 78, 60, 52, 53)
('21-03-08 00:42:40.26759', 50, 60, 43, 54, 75, 57, 49, 46)
('21-03-08 00:42:40.28261', 52, 59, 45, 50, 75, 56, 48, 48)
('21-03-08 00:42:40.30511', 48, 59, 46, 46, 68, 56, 45, 47)
('21-03-08 00:42:40.32865', 46, 56, 48, 54, 65, 62, 48, 47)
('21-03-08 00:42:40.34229', 44, 43, 47, 50, 64, 65, 46, 49)
('21-03-08 00:42:40.36577', 46, 46, 45, 46, 66, 68, 45, 48)
('21-03-08 00:42:40.38759', 58, 74, 43, 47, 64, 95, 46, 47)
('21-03-08 00:42:40.40198', 86, 98, 46, 52, 68, 125, 49, 45)
('21-03-08 00:42:40.42468', 97, 130, 44, 46, 74, 128, 47, 46)
('21-03-08 00:42:40.44757', 99, 197, 43, 52, 81, 135, 50, 57)
('21-03-08 00:42:40.46207', 100, 207, 46, 82, 102, 136, 56, 62)
('21-03-08 00:42:40.48467', 94, 203, 45, 86, 111, 134, 58, 65)
('21-03-08 00:42:40.50770', 73, 196, 47, 84, 111, 118, 61, 67)
('21-03-08 00:42:40.52184', 65, 180, 46, 83, 109, 116, 58, 65)
('21-03-08 00:42:40.54493', 64, 111, 49, 82, 106, 105, 55, 58)
('21-03-08 00:42:40.56820', 61, 91, 44, 52, 82, 103, 50, 51)
('21-03-08 00:42:40.58345', 58, 83, 48, 47, 74, 80, 45, 48)
('21-03-08 00:42:40.60543', 52, 78, 50, 49, 68, 71, 50, 46)
('21-03-08 00:42:40.62802', 59, 82, 51, 54, 68, 66, 53, 42)
('21-03-08 00:42:40.64259', 64, 90, 46, 51, 66, 71, 55, 38)
('21-03-08 00:42:40.66518', 70, 95, 49, 50, 67, 76, 58, 46)
('21-03-08 00:42:40.68738', 76, 112, 47, 51, 69, 86, 58, 45)
('21-03-08 00:42:40.70196', 78, 111, 41, 48, 69, 79, 55, 42)
('21-03-08 00:42:40.72515', 68, 108, 42, 42, 62, 75, 55, 45)
('21-03-08 00:42:40.74729', 60, 92, 45, 45, 71, 69, 55, 44)
('21-03-08 00:42:40.77039', 54, 86, 44, 45, 70, 61, 51, 35)
('21-03-08 00:42:40.78380', 51, 57, 46, 43, 63, 42, 55, 40)
('21-03-08 00:42:40.80830', 49, 58, 49, 46, 67, 49, 46, 45)
('21-03-08 00:42:40.83101', 47, 52, 56, 49, 70, 50, 44, 44)
('21-03-08 00:42:40.84493', 44, 49, 55, 50, 64, 47, 44, 47)
('21-03-08 00:42:40.86823', 43, 47, 58, 52, 64, 47, 45, 47)
('21-03-08 00:42:40.89020', 40, 53, 53, 53, 63, 48, 44, 41)
('21-03-08 00:42:40.90391', 40, 51, 49, 56, 65, 45, 46, 36)
('21-03-08 00:42:40.92943', 41, 58, 40, 60, 68, 55, 44, 37)
('21-03-08 00:42:40.94940', 45, 74, 39, 59, 68, 72, 43, 37)
('21-03-08 00:42:40.97199', 54, 80, 43, 57, 72, 85, 43, 40)
('21-03-08 00:42:40.98697', 56, 82, 46, 59, 79, 101, 40, 46)
('21-03-08 00:42:41.00981', 65, 85, 46, 53, 74, 105, 42, 47)
('21-03-08 00:42:41.02533', 66, 82, 47, 50, 73, 109, 44, 47)
('21-03-08 00:42:41.04812', 64, 70, 46, 49, 71, 102, 44, 50)
('21-03-08 00:42:41.06988', 77, 68, 37, 53, 71, 98, 48, 55)
('21-03-08 00:42:41.09298', 87, 76, 37, 56, 65, 106, 47, 66)
('21-03-08 00:42:41.10871', 150, 212, 43, 79, 91, 221, 46, 83)
('21-03-08 00:42:41.13003', 177, 219, 44, 76, 99, 226, 48, 89)
('21-03-08 00:42:41.14538', 181, 222, 43, 77, 113, 238, 46, 93)
('21-03-08 00:42:41.16777', 183, 222, 44, 74, 110, 236, 39, 90)
('21-03-08 00:42:41.19095', 181, 224, 46, 76, 112, 227, 38, 81)
('21-03-08 00:42:41.20491', 135, 104, 42, 49, 97, 118, 41, 64)
('21-03-08 00:42:41.23010', 116, 93, 43, 48, 87, 99, 38, 59)
('21-03-08 00:42:41.25012', 114, 88, 49, 45, 65, 60, 38, 47)
('21-03-08 00:42:41.26508', 107, 88, 49, 44, 66, 68, 46, 46)
('21-03-08 00:42:41.28734', 107, 86, 48, 36, 68, 77, 49, 49)
('21-03-08 00:42:41.31160', 100, 91, 48, 40, 72, 75, 51, 53)
('21-03-08 00:42:41.32606', 90, 93, 46, 43, 73, 74, 49, 47)
('21-03-08 00:42:41.34869', 86, 87, 40, 45, 76, 76, 50, 50)
('21-03-08 00:42:41.37065', 76, 88, 40, 48, 78, 68, 47, 49)
('21-03-08 00:42:41.38487', 73, 74, 39, 47, 71, 57, 45, 47)
('21-03-08 00:42:41.40676', 72, 63, 37, 42, 56, 54, 42, 41)
('21-03-08 00:42:41.43056', 55, 55, 37, 46, 55, 53, 43, 45)
('21-03-08 00:42:41.44551', 54, 54, 39, 46, 53, 53, 42, 45)
('21-03-08 00:42:41.46710', 52, 44, 36, 43, 56, 47, 38, 44)
('21-03-08 00:42:41.48942', 46, 47, 35, 41, 57, 47, 39, 41)
('21-03-08 00:42:41.50434', 46, 50, 39, 43, 57, 44, 33, 41)
('21-03-08 00:42:41.52860', 42, 47, 43, 39, 67, 47, 37, 40)
('21-03-08 00:42:41.55008', 44, 48, 44, 42, 66, 43, 35, 38)
('21-03-08 00:42:41.56427', 44, 52, 44, 44, 64, 43, 37, 38)
('21-03-08 00:42:41.60312', 47, 49, 44, 45, 61, 44, 39, 41)
('21-03-08 00:42:41.60987', 48, 51, 41, 47, 69, 41, 40, 41)
('21-03-08 00:42:41.62427', 49, 51, 38, 48, 59, 37, 38, 40)
('21-03-08 00:42:41.64736', 46, 53, 38, 51, 62, 41, 44, 43)
('21-03-08 00:42:41.66975', 48, 56, 39, 53, 61, 48, 49, 44)
('21-03-08 00:42:41.68418', 45, 57, 40, 55, 73, 45, 56, 46)
('21-03-08 00:42:41.70718', 46, 58, 45, 55, 71, 49, 56, 53)
('21-03-08 00:42:41.73106', 47, 60, 46, 57, 74, 50, 57, 56)
('21-03-08 00:42:41.75256', 49, 61, 49, 55, 74, 47, 52, 58)
('21-03-08 00:42:41.76743', 49, 57, 50, 56, 77, 44, 49, 58)
('21-03-08 00:42:41.78965', 50, 55, 52, 54, 69, 46, 40, 53)
('21-03-08 00:42:41.81983', 49, 57, 52, 56, 70, 50, 42, 45)
('21-03-08 00:42:41.82761', 63, 67, 50, 51, 72, 51, 41, 60)
('21-03-08 00:42:41.84998', 96, 77, 47, 48, 71, 56, 42, 79)
('21-03-08 00:42:41.87201', 97, 78, 45, 45, 75, 58, 41, 81)
('21-03-08 00:42:41.88701', 98, 80, 44, 45, 77, 60, 40, 84)
('21-03-08 00:42:41.90994', 100, 75, 39, 45, 78, 59, 39, 84)
('21-03-08 00:42:41.93239', 92, 63, 40, 44, 76, 58, 36, 75)
('21-03-08 00:42:41.94661', 59, 49, 41, 46, 75, 54, 37, 54)
('21-03-08 00:42:41.97054', 57, 45, 41, 45, 72, 51, 36, 55)
('21-03-08 00:42:41.99243', 54, 44, 43, 47, 74, 50, 36, 64)
('21-03-08 00:42:42.00705', 58, 44, 45, 43, 84, 53, 39, 163)
('21-03-08 00:42:42.03002', 125, 59, 46, 44, 83, 66, 68, 172)
('21-03-08 00:42:42.05320', 150, 58, 49, 51, 96, 70, 69, 171)
('21-03-08 00:42:42.06637', 160, 101, 52, 51, 95, 75, 71, 170)
('21-03-08 00:42:42.08965', 162, 103, 50, 54, 100, 76, 73, 167)
('21-03-08 00:42:42.11221', 160, 106, 47, 57, 90, 75, 71, 76)
('21-03-08 00:42:42.12655', 119, 101, 47, 58, 90, 69, 50, 49)
('21-03-08 00:42:42.15711', 126, 108, 49, 54, 88, 68, 52, 50)
('21-03-08 00:42:42.17298', 115, 72, 46, 57, 95, 70, 68, 50)
('21-03-08 00:42:42.18663', 124, 70, 44, 60, 89, 71, 83, 174)
('21-03-08 00:42:42.21024', 129, 105, 46, 59, 90, 87, 85, 213)
('21-03-08 00:42:42.23220', 127, 106, 50, 59, 93, 86, 84, 220)
('21-03-08 00:42:42.24879', 118, 100, 41, 57, 82, 85, 94, 253)
('21-03-08 00:42:42.26992', 169, 114, 40, 52, 85, 79, 120, 273)
('21-03-08 00:42:42.29386', 218, 122, 53, 60, 91, 84, 112, 219)
('21-03-08 00:42:42.30730', 218, 102, 52, 58, 91, 64, 112, 180)
('21-03-08 00:42:42.33313', 222, 102, 50, 57, 89, 62, 112, 173)
('21-03-08 00:42:42.35230', 209, 99, 51, 61, 109, 63, 102, 121)
('21-03-08 00:42:42.36711', 177, 84, 52, 63, 109, 62, 53, 71)
('21-03-08 00:42:42.39008', 99, 71, 38, 46, 105, 54, 85, 60)
('21-03-08 00:42:42.41291', 94, 82, 41, 51, 110, 62, 101, 66)
('21-03-08 00:42:42.42763', 90, 94, 40, 49, 109, 62, 101, 63)
('21-03-08 00:42:42.45003', 89, 95, 45, 46, 85, 62, 101, 68)
('21-03-08 00:42:42.47220', 76, 98, 43, 49, 77, 62, 114, 65)
('21-03-08 00:42:42.48719', 156, 103, 56, 62, 82, 71, 89, 70)
('21-03-08 00:42:42.50965', 156, 89, 57, 64, 80, 66, 68, 65)
('21-03-08 00:42:42.53228', 155, 72, 57, 65, 80, 64, 66, 63)
('21-03-08 00:42:42.54660', 152, 71, 53, 62, 86, 64, 67, 54)
('21-03-08 00:42:42.57016', 152, 64, 53, 60, 85, 63, 42, 52)
('21-03-08 00:42:42.59292', 107, 60, 41, 48, 79, 52, 75, 43)
('21-03-08 00:42:42.60756', 107, 59, 33, 43, 74, 54, 89, 40)
('21-03-08 00:42:42.63051', 127, 82, 37, 45, 78, 57, 91, 46)
('21-03-08 00:42:42.65235', 128, 90, 39, 48, 74, 59, 89, 45)
('21-03-08 00:42:42.67552', 134, 94, 41, 48, 84, 67, 97, 52)
('21-03-08 00:42:42.68958', 177, 95, 49, 49, 90, 76, 77, 58)
('21-03-08 00:42:42.71254', 181, 94, 54, 56, 90, 71, 58, 61)
('21-03-08 00:42:42.73466', 165, 78, 53, 55, 87, 68, 55, 58)
('21-03-08 00:42:42.75152', 166, 70, 51, 55, 91, 67, 59, 57)
('21-03-08 00:42:42.77252', 162, 65, 53, 56, 79, 57, 47, 52)
('21-03-08 00:42:42.79530', 124, 69, 48, 54, 72, 44, 77, 46)
('21-03-08 00:42:42.81007', 140, 71, 46, 58, 72, 76, 99, 43)
('21-03-08 00:42:42.83482', 175, 115, 48, 64, 73, 86, 101, 181)
('21-03-08 00:42:42.85618', 177, 119, 53, 64, 80, 89, 104, 198)
('21-03-08 00:42:42.86932', 200, 120, 51, 63, 114, 97, 144, 201)
('21-03-08 00:42:42.89411', 285, 138, 59, 74, 143, 111, 145, 210)
('21-03-08 00:42:42.92252', 297, 174, 78, 88, 155, 185, 138, 214)
('21-03-08 00:42:42.92934', 301, 154, 77, 86, 164, 187, 141, 124)
('21-03-08 00:42:42.95238', 308, 165, 74, 89, 162, 191, 139, 96)
('21-03-08 00:42:42.97569', 297, 167, 75, 92, 145, 193, 99, 92)
('21-03-08 00:42:42.98961', 197, 151, 68, 86, 122, 190, 92, 70)
('21-03-08 00:42:43.01261', 240, 126, 46, 74, 110, 109, 87, 59)
('21-03-08 00:42:43.03470', 248, 151, 45, 71, 108, 105, 87, 126)
('21-03-08 00:42:43.05037', 249, 150, 49, 69, 100, 95, 91, 127)
('21-03-08 00:42:43.07261', 265, 150, 47, 63, 100, 83, 110, 131)
('21-03-08 00:42:43.09553', 279, 153, 53, 62, 92, 91, 127, 137)
('21-03-08 00:42:43.11021', 234, 135, 54, 62, 98, 88, 123, 137)
('21-03-08 00:42:43.13273', 210, 98, 53, 60, 86, 78, 118, 76)
('21-03-08 00:42:43.15597', 199, 71, 47, 59, 85, 79, 114, 75)
('21-03-08 00:42:43.16915', 171, 66, 50, 62, 78, 78, 99, 66)
('21-03-08 00:42:43.19265', 143, 54, 41, 63, 82, 55, 53, 49)
('21-03-08 00:42:43.21528', 107, 55, 44, 51, 68, 53, 52, 48)
('21-03-08 00:42:43.22910', 100, 72, 47, 52, 65, 51, 54, 65)
('21-03-08 00:42:43.25302', 129, 76, 48, 50, 68, 58, 53, 89)
('21-03-08 00:42:43.27602', 130, 76, 45, 50, 67, 62, 45, 103)
('21-03-08 00:42:43.29017', 132, 81, 45, 44, 57, 63, 46, 111)
('21-03-08 00:42:43.31317', 135, 80, 40, 39, 55, 63, 51, 117)
('21-03-08 00:42:43.33496', 114, 61, 42, 37, 59, 65, 50, 109)
('21-03-08 00:42:43.34898', 74, 58, 45, 36, 57, 56, 50, 90)
('21-03-08 00:42:43.37285', 68, 62, 46, 37, 56, 51, 43, 76)
('21-03-08 00:42:43.39530', 62, 54, 46, 41, 58, 51, 43, 66)
('21-03-08 00:42:43.40920', 51, 54, 45, 43, 59, 51, 42, 52)
('21-03-08 00:42:43.43239', 46, 55, 41, 49, 62, 52, 43, 50)
('21-03-08 00:42:43.45616', 44, 52, 37, 56, 62, 52, 47, 51)
('21-03-08 00:42:43.46938', 39, 44, 41, 59, 71, 53, 49, 49)
('21-03-08 00:42:43.49291', 41, 45, 41, 56, 68, 53, 57, 48)
('21-03-08 00:42:43.51517', 49, 46, 45, 57, 74, 51, 56, 50)
('21-03-08 00:42:43.52957', 55, 44, 46, 54, 72, 49, 57, 53)
('21-03-08 00:42:43.55253', 57, 43, 47, 46, 71, 47, 52, 56)
('21-03-08 00:42:43.57683', 58, 53, 46, 46, 68, 51, 53, 58)
('21-03-08 00:42:43.58913', 55, 51, 49, 54, 76, 51, 43, 58)
('21-03-08 00:42:43.61306', 47, 51, 50, 52, 69, 51, 42, 58)
('21-03-08 00:42:43.63502', 42, 55, 51, 53, 74, 55, 43, 57)
('21-03-08 00:42:43.65765', 43, 55, 55, 54, 76, 55, 44, 52)
('21-03-08 00:42:43.67202', 44, 48, 52, 50, 75, 55, 44, 50)
('21-03-08 00:42:43.69611', 42, 47, 49, 41, 66, 55, 47, 50)
('21-03-08 00:42:43.71732', 45, 42, 43, 39, 70, 51, 46, 52)
('21-03-08 00:42:43.73432', 45, 35, 46, 40, 61, 48, 50, 50)
('21-03-08 00:42:43.75514', 42, 33, 43, 43, 58, 49, 48, 49)
('21-03-08 00:42:43.77797', 44, 38, 46, 46, 51, 52, 44, 46)
('21-03-08 00:42:43.79223', 47, 39, 44, 50, 60, 50, 48, 47)
('21-03-08 00:42:43.83111', 45, 43, 49, 52, 55, 55, 47, 43)
('21-03-08 00:42:43.83768', 47, 45, 44, 51, 63, 54, 41, 47)
('21-03-08 00:42:43.85249', 50, 48, 48, 54, 69, 55, 46, 48)
('21-03-08 00:42:43.87507', 45, 47, 45, 52, 70, 48, 47, 53)
('21-03-08 00:42:43.89735', 46, 49, 47, 53, 67, 50, 44, 54)
('21-03-08 00:42:43.91326', 42, 49, 45, 51, 72, 46, 45, 54)
('21-03-08 00:42:43.93483', 41, 49, 49, 52, 70, 43, 44, 50)
('21-03-08 00:42:43.95766', 39, 48, 46, 47, 71, 40, 44, 49)
('21-03-08 00:42:43.97217', 39, 48, 48, 47, 74, 51, 42, 42)
('21-03-08 00:42:43.99596', 44, 49, 52, 45, 74, 54, 43, 36)
('21-03-08 00:42:44.01748', 44, 47, 51, 49, 77, 55, 45, 36)
('21-03-08 00:42:44.03289', 43, 45, 47, 46, 70, 55, 46, 40)
('21-03-08 00:42:44.06306', 46, 47, 51, 53, 67, 57, 47, 41)
('21-03-08 00:42:44.07714', 46, 45, 49, 49, 67, 48, 49, 47)
('21-03-08 00:42:44.10091', 44, 40, 45, 51, 63, 42, 46, 50)
('21-03-08 00:42:44.11689', 45, 41, 48, 52, 59, 42, 45, 50)
('21-03-08 00:42:44.13768', 46, 44, 49, 52, 63, 44, 44, 50)
('21-03-08 00:42:44.15266', 42, 38, 43, 48, 62, 44, 41, 49)
('21-03-08 00:42:44.17621', 45, 42, 44, 53, 64, 47, 43, 44)
('21-03-08 00:42:44.19737', 42, 42, 43, 50, 67, 58, 41, 43)
('21-03-08 00:42:44.21230', 51, 54, 39, 46, 65, 62, 48, 50)
('21-03-08 00:42:44.23623', 72, 60, 37, 48, 68, 69, 46, 52)
('21-03-08 00:42:44.25713', 91, 123, 43, 47, 80, 139, 46, 142)
('21-03-08 00:42:44.27166', 102, 138, 42, 47, 80, 157, 45, 150)
('21-03-08 00:42:44.29646', 120, 142, 45, 46, 89, 160, 52, 152)
('21-03-08 00:42:44.31777', 117, 140, 48, 49, 88, 157, 47, 149)
('21-03-08 00:42:44.33283', 109, 147, 49, 57, 102, 161, 46, 155)
('21-03-08 00:42:44.35588', 101, 104, 44, 56, 97, 116, 45, 88)
('21-03-08 00:42:44.37793', 91, 95, 41, 56, 95, 90, 47, 81)
('21-03-08 00:42:44.39201', 64, 92, 40, 58, 84, 82, 39, 80)
('21-03-08 00:42:44.41569', 68, 90, 40, 57, 84, 84, 38, 79)
('21-03-08 00:42:44.43756', 65, 79, 43, 82, 63, 97, 40, 69)
('21-03-08 00:42:44.45998', 63, 84, 46, 93, 67, 113, 44, 65)
('21-03-08 00:42:44.47579', 67, 77, 49, 92, 69, 116, 43, 56)
('21-03-08 00:42:44.49829', 108, 114, 60, 98, 77, 157, 47, 53)
('21-03-08 00:42:44.51414', 120, 158, 71, 101, 75, 166, 50, 61)
('21-03-08 00:42:44.53553', 129, 163, 76, 84, 73, 155, 51, 62)
('21-03-08 00:42:44.55764', 127, 161, 76, 72, 66, 139, 48, 59)
('21-03-08 00:42:44.58005', 126, 158, 76, 72, 61, 138, 49, 62)
('21-03-08 00:42:44.59418', 98, 133, 71, 68, 49, 90, 47, 66)
('21-03-08 00:42:44.61821', 81, 79, 60, 61, 47, 71, 45, 66)
('21-03-08 00:42:44.63987', 65, 64, 49, 51, 60, 71, 47, 65)
('21-03-08 00:42:44.65451', 60, 59, 48, 51, 76, 63, 50, 61)
('21-03-08 00:42:44.67714', 52, 61, 52, 53, 82, 58, 47, 63)
('21-03-08 00:42:44.70034', 46, 61, 49, 49, 86, 49, 51, 58)
('21-03-08 00:42:44.71486', 42, 50, 48, 54, 91, 53, 52, 52)
('21-03-08 00:42:44.73772', 40, 57, 50, 53, 83, 44, 49, 51)
('21-03-08 00:42:44.75960', 46, 55, 48, 52, 71, 42, 45, 50)
('21-03-08 00:42:44.77428', 49, 48, 42, 49, 64, 45, 46, 45)
('21-03-08 00:42:44.79983', 47, 49, 35, 47, 65, 53, 41, 43)
('21-03-08 00:42:44.82040', 55, 54, 38, 44, 64, 51, 36, 41)
('21-03-08 00:42:44.83398', 52, 43, 36, 41, 63, 52, 42, 41)
('21-03-08 00:42:44.85841', 51, 46, 38, 43, 61, 56, 46, 43)
('21-03-08 00:42:44.88086', 49, 46, 41, 45, 59, 56, 45, 44)
('21-03-08 00:42:44.89481', 55, 49, 42, 47, 56, 52, 45, 50)
('21-03-08 00:42:44.92619', 49, 45, 40, 51, 53, 51, 46, 51)
('21-03-08 00:42:44.93988', 51, 49, 41, 54, 55, 51, 42, 48)
('21-03-08 00:42:44.95438', 52, 48, 44, 53, 62, 48, 47, 47)
('21-03-08 00:42:44.97837', 57, 50, 43, 55, 69, 47, 53, 46)
('21-03-08 00:42:44.99980', 50, 50, 44, 54, 69, 46, 54, 42)
('21-03-08 00:42:45.02267', 50, 57, 48, 49, 67, 46, 55, 42)
('21-03-08 00:42:45.03733', 49, 57, 48, 46, 73, 48, 57, 45)
('21-03-08 00:42:45.06101', 47, 60, 44, 45, 68, 48, 56, 49)
('21-03-08 00:42:45.07424', 40, 60, 44, 39, 71, 49, 50, 48)
('21-03-08 00:42:45.10505', 39, 57, 40, 38, 75, 47, 50, 47)
('21-03-08 00:42:45.11977', 35, 50, 45, 39, 87, 48, 47, 48)
('21-03-08 00:42:45.13412', 35, 48, 42, 38, 80, 46, 42, 45)
('21-03-08 00:42:45.15722', 36, 43, 47, 41, 80, 61, 33, 42)
('21-03-08 00:42:45.18083', 49, 60, 53, 41, 73, 76, 39, 52)
('21-03-08 00:42:45.20203', 58, 67, 61, 46, 72, 79, 40, 53)
('21-03-08 00:42:45.21753', 59, 68, 54, 46, 62, 90, 45, 55)
('21-03-08 00:42:45.23977', 57, 73, 54, 47, 69, 90, 48, 55)
('21-03-08 00:42:45.26432', 66, 74, 50, 47, 70, 82, 47, 57)
('21-03-08 00:42:45.27801', 59, 63, 46, 50, 70, 73, 45, 48)
('21-03-08 00:42:45.29979', 55, 68, 34, 45, 69, 83, 45, 64)
('21-03-08 00:42:45.31432', 129, 121, 40, 44, 65, 95, 46, 135)
('21-03-08 00:42:45.33771', 158, 144, 49, 47, 65, 115, 49, 193)
('21-03-08 00:42:45.35998', 165, 155, 53, 55, 62, 129, 51, 207)
('21-03-08 00:42:45.37522', 176, 161, 56, 66, 65, 130, 56, 212)
('21-03-08 00:42:45.40089', 180, 161, 58, 76, 65, 134, 58, 212)
('21-03-08 00:42:45.42024', 144, 130, 57, 77, 64, 118, 55, 180)
('21-03-08 00:42:45.43789', 115, 111, 50, 75, 62, 102, 53, 117)
('21-03-08 00:42:45.45774', 103, 100, 46, 70, 65, 80, 55, 92)
('21-03-08 00:42:45.48042', 84, 94, 42, 59, 64, 81, 51, 82)
('21-03-08 00:42:45.50136', 82, 102, 42, 46, 68, 60, 50, 71)
('21-03-08 00:42:45.51861', 75, 102, 41, 49, 73, 63, 54, 64)
('21-03-08 00:42:45.53940', 77, 97, 47, 49, 78, 62, 48, 63)
('21-03-08 00:42:45.56175', 73, 91, 45, 48, 82, 63, 45, 59)
('21-03-08 00:42:45.57892', 73, 89, 44, 52, 84, 58, 44, 56)
('21-03-08 00:42:45.60753', 64, 70, 42, 59, 79, 64, 42, 61)
('21-03-08 00:42:45.62140', 60, 63, 41, 58, 84, 70, 45, 55)
('21-03-08 00:42:45.63892', 50, 58, 38, 59, 79, 69, 48, 57)
('21-03-08 00:42:45.66078', 54, 64, 41, 67, 71, 67, 53, 55)
('21-03-08 00:42:45.68160', 53, 68, 40, 64, 69, 68, 52, 60)
('21-03-08 00:42:45.71390', 54, 71, 42, 57, 71, 61, 55, 53)
('21-03-08 00:42:45.72130', 51, 73, 43, 57, 66, 54, 49, 56)
('21-03-08 00:42:45.74185', 54, 73, 40, 59, 74, 56, 53, 52)
('21-03-08 00:42:45.76569', 51, 66, 38, 59, 72, 60, 49, 57)
('21-03-08 00:42:45.79043', 50, 57, 42, 58, 76, 57, 51, 53)
('21-03-08 00:42:45.80153', 51, 55, 39, 59, 79, 55, 50, 52)
('21-03-08 00:42:45.81845', 52, 55, 39, 57, 78, 49, 51, 47)
('21-03-08 00:42:45.84099', 54, 62, 45, 56, 72, 47, 50, 50)
('21-03-08 00:42:45.86311', 54, 66, 45, 51, 77, 44, 58, 51)
('21-03-08 00:42:45.88395', 56, 73, 44, 48, 72, 46, 67, 52)
('21-03-08 00:42:45.90198', 145, 177, 50, 69, 72, 52, 72, 52)
('21-03-08 00:42:45.92161', 228, 265, 67, 163, 88, 71, 75, 76)
('21-03-08 00:42:45.94503', 239, 284, 75, 195, 90, 75, 73, 78)
('21-03-08 00:42:45.96314', 246, 295, 82, 204, 112, 81, 72, 81)
('21-03-08 00:42:45.98247', 251, 309, 87, 208, 166, 82, 64, 81)
('21-03-08 00:42:46.00415', 214, 269, 88, 215, 189, 79, 57, 81)
('21-03-08 00:42:46.02113', 126, 183, 76, 158, 185, 67, 56, 64)
('21-03-08 00:42:46.04173', 103, 157, 71, 116, 187, 63, 56, 59)
('21-03-08 00:42:46.06412', 86, 137, 66, 97, 176, 59, 56, 51)
('21-03-08 00:42:46.08218', 68, 98, 61, 90, 127, 57, 52, 49)
('21-03-08 00:42:46.10202', 64, 84, 56, 52, 90, 60, 51, 53)
('21-03-08 00:42:46.12451', 56, 92, 57, 52, 82, 60, 48, 48)
('21-03-08 00:42:46.14226', 53, 77, 50, 50, 81, 60, 46, 48)
('21-03-08 00:42:46.16186', 50, 72, 46, 54, 77, 56, 42, 50)
('21-03-08 00:42:46.18609', 50, 69, 41, 54, 75, 56, 42, 50)
('21-03-08 00:42:46.20063', 43, 74, 40, 53, 73, 58, 45, 45)
('21-03-08 00:42:46.22172', 49, 115, 38, 57, 136, 62, 44, 44)
('21-03-08 00:42:46.24437', 123, 249, 48, 57, 163, 58, 46, 50)
('21-03-08 00:42:46.26121', 141, 262, 54, 60, 163, 64, 42, 50)
('21-03-08 00:42:46.28182', 142, 263, 67, 60, 164, 66, 44, 47)
('21-03-08 00:42:46.30428', 144, 267, 73, 63, 169, 63, 42, 46)
('21-03-08 00:42:46.32220', 146, 252, 73, 57, 132, 60, 42, 41)
('21-03-08 00:42:46.34178', 98, 122, 66, 62, 93, 65, 40, 36)
('21-03-08 00:42:46.36398', 83, 92, 66, 56, 98, 66, 42, 37)
('21-03-08 00:42:46.38459', 82, 91, 59, 62, 104, 66, 42, 38)
('21-03-08 00:42:46.40958', 85, 72, 55, 62, 94, 68, 42, 39)
('21-03-08 00:42:46.42424', 75, 53, 55, 61, 88, 67, 41, 42)
('21-03-08 00:42:46.44087', 71, 57, 55, 65, 87, 65, 44, 43)
('21-03-08 00:42:46.46255', 55, 57, 50, 64, 88, 64, 43, 47)
('21-03-08 00:42:46.48508', 52, 53, 53, 63, 76, 60, 40, 48)
('21-03-08 00:42:46.50330', 59, 51, 57, 61, 71, 56, 40, 50)
('21-03-08 00:42:46.52215', 60, 54, 115, 67, 77, 54, 40, 51)
('21-03-08 00:42:46.54495', 107, 102, 500, 105, 120, 104, 102, 104)
('21-03-08 00:42:46.56098', 119, 130, 779, 122, 127, 113, 123, 107)
('21-03-08 00:42:46.58246', 126, 135, 876, 122, 130, 118, 131, 109)
('21-03-08 00:42:46.60500', 126, 145, 961, 127, 135, 121, 138, 111)
('21-03-08 00:42:46.62305', 126, 147, 1006, 131, 135, 126, 145, 114)
('21-03-08 00:42:46.64182', 93, 118, 1016, 98, 102, 90, 111, 70)
('21-03-08 00:42:46.66470', 81, 87, 865, 78, 90, 72, 89, 62)
('21-03-08 00:42:46.68156', 71, 83, 817, 78, 86, 67, 86, 60)
('21-03-08 00:42:46.70196', 60, 67, 779, 68, 79, 62, 80, 55)
('21-03-08 00:42:46.72437', 58, 63, 752, 56, 77, 51, 72, 51)
('21-03-08 00:42:46.74093', 52, 56, 573, 55, 67, 47, 71, 51)
('21-03-08 00:42:46.76206', 46, 54, 518, 51, 67, 50, 67, 51)
('21-03-08 00:42:46.78424', 43, 49, 438, 49, 71, 47, 56, 50)
('21-03-08 00:42:46.80109', 40, 48, 320, 50, 71, 43, 46, 48)
('21-03-08 00:42:46.82187', 40, 48, 222, 55, 76, 43, 50, 47)
('21-03-08 00:42:46.84511', 39, 53, 177, 56, 77, 46, 50, 39)
('21-03-08 00:42:46.86248', 39, 51, 145, 56, 71, 44, 55, 41)
('21-03-08 00:42:46.88265', 42, 49, 131, 53, 66, 46, 56, 39)
('21-03-08 00:42:46.90453', 40, 47, 98, 50, 68, 48, 56, 37)
('21-03-08 00:42:46.92115', 68, 51, 301, 45, 60, 49, 55, 41)
('21-03-08 00:42:46.94177', 202, 191, 702, 62, 77, 70, 74, 50)
('21-03-08 00:42:46.96502', 234, 199, 968, 81, 81, 82, 84, 59)
('21-03-08 00:42:46.98174', 237, 210, 1047, 94, 81, 90, 91, 59)
('21-03-08 00:42:47.00215', 240, 219, 1066, 107, 84, 98, 95, 62)
('21-03-08 00:42:47.02425', 236, 229, 1029, 109, 85, 98, 94, 59)
('21-03-08 00:42:47.04159', 145, 143, 887, 100, 72, 85, 79, 52)
('21-03-08 00:42:47.06217', 87, 134, 824, 86, 73, 74, 67, 38)
('21-03-08 00:42:47.08546', 84, 118, 1009, 83, 75, 65, 55, 38)
('21-03-08 00:42:47.10115', 76, 105, 1121, 68, 70, 60, 61, 37)
('21-03-08 00:42:47.12266', 75, 81, 1139, 62, 63, 64, 68, 41)
('21-03-08 00:42:47.14434', 66, 78, 1097, 62, 64, 74, 78, 44)
('21-03-08 00:42:47.16147', 67, 79, 946, 71, 61, 74, 81, 51)
('21-03-08 00:42:47.18319', 61, 76, 639, 59, 62, 72, 81, 55)
('21-03-08 00:42:47.20447', 60, 70, 372, 62, 65, 66, 74, 57)
('21-03-08 00:42:47.22183', 54, 64, 298, 63, 67, 62, 63, 53)
('21-03-08 00:42:47.24148', 158, 217, 635, 101, 80, 71, 63, 53)
('21-03-08 00:42:47.26437', 191, 228, 784, 107, 82, 89, 68, 49)
('21-03-08 00:42:47.28760', 196, 230, 919, 107, 84, 96, 69, 46)
('21-03-08 00:42:47.30222', 199, 235, 974, 109, 82, 100, 75, 47)
('21-03-08 00:42:47.32437', 201, 236, 1037, 116, 87, 100, 81, 52)
('21-03-08 00:42:47.34737', 139, 115, 934, 86, 76, 87, 70, 51)
('21-03-08 00:42:47.36623', 86, 100, 895, 76, 76, 72, 63, 50)
('21-03-08 00:42:47.38466', 71, 97, 826, 77, 77, 64, 61, 51)
('21-03-08 00:42:47.40700', 62, 87, 812, 74, 87, 62, 59, 48)
('21-03-08 00:42:47.42220', 55, 86, 749, 64, 77, 59, 51, 46)
('21-03-08 00:42:47.44428', 49, 75, 667, 65, 80, 59, 51, 50)
('21-03-08 00:42:47.46655', 43, 61, 545, 62, 81, 55, 48, 51)
('21-03-08 00:42:47.48197', 42, 60, 461, 64, 76, 53, 57, 49)
('21-03-08 00:42:47.50422', 44, 53, 371, 64, 70, 49, 54, 46)
('21-03-08 00:42:47.52760', 45, 50, 354, 62, 73, 49, 52, 46)
('21-03-08 00:42:47.54236', 39, 47, 322, 62, 70, 48, 52, 40)
('21-03-08 00:42:47.56502', 40, 49, 291, 60, 62, 45, 54, 40)
('21-03-08 00:42:47.58666', 40, 51, 230, 61, 60, 42, 49, 42)
('21-03-08 00:42:47.60228', 38, 52, 211, 62, 54, 39, 43, 43)
('21-03-08 00:42:47.63191', 40, 48, 177, 64, 58, 37, 45, 44)
('21-03-08 00:42:47.64783', 45, 49, 162, 66, 60, 38, 45, 43)
('21-03-08 00:42:47.66297', 45, 47, 160, 68, 65, 43, 43, 44)
('21-03-08 00:42:47.68510', 44, 45, 144, 67, 71, 44, 38, 44)
('21-03-08 00:42:47.70690', 46, 47, 131, 59, 71, 45, 40, 48)
('21-03-08 00:42:47.72179', 44, 50, 128, 60, 75, 48, 46, 46)
('21-03-08 00:42:47.74448', 41, 51, 122, 54, 71, 49, 44, 48)
('21-03-08 00:42:47.76707', 47, 53, 132, 55, 68, 49, 45, 46)
('21-03-08 00:42:47.78908', 49, 50, 142, 51, 72, 49, 45, 49)
('21-03-08 00:42:47.80440', 46, 46, 149, 54, 71, 49, 44, 46)
('21-03-08 00:42:47.82671', 47, 45, 176, 52, 63, 46, 40, 45)
('21-03-08 00:42:47.84335', 46, 44, 174, 53, 64, 40, 40, 46)
('21-03-08 00:42:47.86509', 40, 40, 169, 54, 71, 42, 40, 51)
('21-03-08 00:42:47.88675', 44, 39, 163, 53, 65, 43, 41, 46)
('21-03-08 00:42:47.90384', 43, 37, 158, 50, 65, 46, 43, 43)
('21-03-08 00:42:47.92409', 40, 40, 124, 48, 64, 47, 38, 47)
('21-03-08 00:42:47.94742', 42, 38, 118, 47, 61, 48, 40, 47)
('21-03-08 00:42:47.96498', 41, 42, 116, 41, 58, 46, 39, 45)
('21-03-08 00:42:47.98519', 40, 42, 110, 44, 58, 50, 40, 47)
('21-03-08 00:42:48.00702', 41, 42, 121, 48, 61, 52, 40, 49)
('21-03-08 00:42:48.02384', 44, 44, 140, 53, 66, 58, 40, 44)
('21-03-08 00:42:48.04478', 45, 46, 149, 53, 66, 61, 38, 42)
('21-03-08 00:42:48.07546', 49, 44, 145, 56, 72, 64, 40, 43)
('21-03-08 00:42:48.08498', 50, 52, 173, 56, 73, 60, 38, 45)
('21-03-08 00:42:48.11363', 57, 58, 180, 55, 75, 59, 36, 42)
('21-03-08 00:42:48.12669', 57, 57, 218, 54, 71, 62, 43, 49)
('21-03-08 00:42:48.14588', 62, 56, 314, 58, 76, 65, 47, 48)
('21-03-08 00:42:48.16484', 64, 57, 613, 63, 68, 66, 51, 45)
('21-03-08 00:42:48.18910', 63, 63, 782, 68, 67, 69, 64, 45)
('21-03-08 00:42:48.20394', 65, 63, 910, 69, 70, 70, 71, 50)
('21-03-08 00:42:48.22442', 69, 73, 950, 75, 79, 62, 73, 43)
('21-03-08 00:42:48.24676', 69, 79, 975, 79, 89, 65, 81, 45)
('21-03-08 00:42:48.26412', 67, 79, 851, 74, 87, 60, 85, 47)
('21-03-08 00:42:48.28427', 64, 69, 713, 70, 90, 56, 79, 43)
('21-03-08 00:42:48.30669', 56, 68, 544, 71, 87, 54, 72, 40)
('21-03-08 00:42:48.32588', 51, 54, 455, 64, 78, 56, 68, 41)
('21-03-08 00:42:48.34436', 48, 48, 332, 60, 64, 48, 57, 46)
('21-03-08 00:42:48.36709', 46, 47, 245, 57, 66, 49, 46, 43)
('21-03-08 00:42:48.38917', 48, 49, 175, 57, 64, 53, 40, 43)
('21-03-08 00:42:48.40414', 47, 42, 139, 54, 68, 50, 41, 43)
('21-03-08 00:42:48.42669', 48, 45, 118, 58, 70, 55, 41, 48)
('21-03-08 00:42:48.44974', 42, 45, 87, 54, 71, 53, 44, 44)
('21-03-08 00:42:48.46552', 44, 47, 64, 56, 68, 52, 45, 48)
('21-03-08 00:42:48.48739', 44, 48, 60, 54, 69, 48, 47, 52)
('21-03-08 00:42:48.50937', 46, 53, 51, 52, 59, 52, 46, 51)
('21-03-08 00:42:48.52492', 44, 51, 53, 46, 60, 58, 42, 47)
('21-03-08 00:42:48.54692', 45, 50, 58, 46, 61, 63, 39, 45)
('21-03-08 00:42:48.56920', 44, 51, 58, 49, 69, 67, 38, 40)
('21-03-08 00:42:48.58470', 42, 52, 54, 52, 75, 74, 37, 35)
('21-03-08 00:42:48.60659', 45, 50, 55, 53, 78, 73, 41, 36)
('21-03-08 00:42:48.63063', 45, 49, 53, 57, 84, 70, 43, 40)
('21-03-08 00:42:48.64417', 43, 51, 50, 55, 80, 67, 42, 40)
('21-03-08 00:42:48.66737', 47, 50, 47, 57, 70, 63, 42, 39)
('21-03-08 00:42:48.68931', 46, 48, 45, 53, 69, 55, 45, 39)
('21-03-08 00:42:48.71229', 41, 49, 45, 53, 72, 62, 44, 37)
('21-03-08 00:42:48.72670', 40, 50, 47, 52, 64, 65, 45, 32)
('21-03-08 00:42:48.74959', 42, 48, 43, 52, 63, 68, 44, 33)
('21-03-08 00:42:48.76466', 40, 44, 41, 45, 65, 72, 44, 36)
('21-03-08 00:42:48.78645', 50, 43, 40, 48, 61, 71, 40, 41)
('21-03-08 00:42:48.81727', 54, 42, 44, 51, 63, 67, 35, 45)
('21-03-08 00:42:48.82396', 54, 42, 40, 51, 61, 59, 32, 46)
('21-03-08 00:42:48.84759', 55, 44, 45, 52, 60, 53, 41, 49)
('21-03-08 00:42:48.86907', 54, 46, 48, 53, 62, 44, 44, 47)
('21-03-08 00:42:48.88571', 44, 53, 47, 51, 64, 45, 51, 44)
('21-03-08 00:42:48.90655', 45, 54, 45, 55, 61, 49, 52, 41)
('21-03-08 00:42:48.92930', 45, 52, 45, 54, 68, 52, 54, 44)
('21-03-08 00:42:48.94538', 44, 50, 49, 55, 77, 56, 49, 41)
('21-03-08 00:42:48.96646', 47, 50, 46, 58, 81, 56, 48, 45)
('21-03-08 00:42:48.99108', 51, 46, 48, 61, 83, 55, 43, 44)
('21-03-08 00:42:49.00439', 46, 45, 48, 58, 85, 52, 46, 46)
('21-03-08 00:42:49.02830', 46, 49, 49, 59, 82, 50, 44, 43)
('21-03-08 00:42:49.05058', 51, 49, 46, 61, 79, 49, 45, 44)
('21-03-08 00:42:49.06628', 48, 49, 49, 60, 72, 51, 43, 40)
('21-03-08 00:42:49.08643', 48, 48, 49, 55, 67, 50, 41, 40)
('21-03-08 00:42:49.10932', 47, 46, 47, 56, 73, 54, 41, 37)
('21-03-08 00:42:49.12422', 47, 42, 44, 58, 79, 57, 41, 39)
('21-03-08 00:42:49.14768', 45, 40, 39, 57, 78, 53, 40, 42)
('21-03-08 00:42:49.16975', 48, 40, 44, 57, 78, 50, 42, 49)
('21-03-08 00:42:49.18527', 55, 54, 72, 67, 90, 56, 57, 53)
('21-03-08 00:42:49.20707', 63, 60, 77, 62, 85, 53, 70, 54)
('21-03-08 00:42:49.22962', 67, 67, 381, 67, 78, 51, 76, 58)
('21-03-08 00:42:49.25150', 66, 69, 711, 67, 78, 61, 84, 55)
('21-03-08 00:42:49.26719', 67, 69, 912, 71, 80, 67, 86, 58)
('21-03-08 00:42:49.28912', 61, 60, 1039, 64, 68, 63, 81, 57)
('21-03-08 00:42:49.31180', 58, 59, 1147, 75, 65, 62, 71, 57)
('21-03-08 00:42:49.32656', 54, 50, 1139, 67, 67, 61, 66, 49)
('21-03-08 00:42:49.34924', 50, 56, 1070, 64, 68, 52, 57, 48)
('21-03-08 00:42:49.37381', 47, 58, 1015, 67, 63, 54, 58, 39)
('21-03-08 00:42:49.38659', 46, 55, 921, 68, 63, 53, 54, 33)
('21-03-08 00:42:49.40956', 41, 49, 809, 58, 59, 53, 53, 34)
('21-03-08 00:42:49.43326', 42, 50, 758, 58, 66, 50, 55, 36)
('21-03-08 00:42:49.44674', 42, 43, 709, 61, 64, 53, 54, 39)
('21-03-08 00:42:49.46903', 41, 45, 811, 63, 73, 50, 53, 49)
('21-03-08 00:42:49.49276', 41, 45, 837, 62, 75, 55, 54, 51)
('21-03-08 00:42:49.50661', 37, 46, 879, 64, 80, 55, 53, 54)
('21-03-08 00:42:49.53059', 39, 45, 860, 68, 75, 58, 48, 56)
('21-03-08 00:42:49.55164', 39, 48, 781, 66, 76, 56, 47, 59)
('21-03-08 00:42:49.56779', 39, 47, 523, 62, 73, 54, 48, 53)
('21-03-08 00:42:49.58929', 40, 46, 441, 58, 74, 51, 43, 52)
('21-03-08 00:42:49.61314', 42, 46, 333, 61, 86, 55, 44, 53)
('21-03-08 00:42:49.63422', 45, 49, 451, 55, 85, 54, 44, 51)
('21-03-08 00:42:49.65106', 46, 47, 488, 56, 87, 54, 46, 50)
('21-03-08 00:42:49.67189', 50, 49, 490, 53, 90, 53, 38, 48)
('21-03-08 00:42:49.68690', 55, 58, 492, 60, 92, 56, 41, 52)
('21-03-08 00:42:49.70982', 51, 58, 515, 57, 83, 50, 39, 50)
('21-03-08 00:42:49.73200', 48, 58, 442, 58, 82, 50, 40, 54)
('21-03-08 00:42:49.74772', 50, 57, 403, 56, 82, 48, 41, 50)
('21-03-08 00:42:49.76909', 48, 54, 368, 61, 74, 45, 43, 50)
('21-03-08 00:42:49.79340', 44, 46, 321, 55, 67, 38, 41, 48)
('21-03-08 00:42:49.80678', 45, 44, 231, 52, 64, 38, 37, 46)
('21-03-08 00:42:49.83206', 43, 49, 147, 52, 63, 35, 36, 41)
('21-03-08 00:42:49.85150', 40, 51, 124, 55, 64, 42, 33, 41)
('21-03-08 00:42:49.86691', 38, 49, 117, 47, 66, 42, 31, 41)
('21-03-08 00:42:49.88921', 38, 49, 123, 43, 65, 44, 35, 37)
('21-03-08 00:42:49.91216', 37, 51, 222, 51, 66, 47, 38, 37)
('21-03-08 00:42:49.92660', 41, 44, 318, 54, 65, 49, 36, 39)
('21-03-08 00:42:49.94964', 40, 46, 363, 53, 68, 46, 36, 39)
('21-03-08 00:42:49.97409', 41, 45, 457, 63, 71, 52, 38, 37)
('21-03-08 00:42:49.98675', 37, 45, 608, 67, 71, 55, 37, 37)
('21-03-08 00:42:50.00966', 45, 42, 652, 65, 66, 57, 38, 39)
('21-03-08 00:42:50.03207', 40, 51, 687, 68, 67, 60, 43, 41)
('21-03-08 00:42:50.04768', 41, 50, 843, 74, 68, 60, 44, 37)
('21-03-08 00:42:50.06961', 42, 52, 866, 67, 68, 56, 44, 36)
('21-03-08 00:42:50.09250', 47, 55, 816, 71, 67, 56, 43, 46)
('21-03-08 00:42:50.10778', 41, 59, 768, 67, 69, 54, 43, 47)
('21-03-08 00:42:50.13061', 40, 59, 754, 68, 69, 48, 39, 47)
('21-03-08 00:42:50.15208', 41, 61, 590, 62, 62, 48, 37, 50)
('21-03-08 00:42:50.16747', 42, 62, 503, 61, 64, 46, 36, 53)
('21-03-08 00:42:50.18982', 37, 59, 425, 55, 72, 39, 35, 46)
('21-03-08 00:42:50.21248', 45, 62, 412, 60, 74, 39, 35, 44)
('21-03-08 00:42:50.23421', 47, 56, 314, 54, 73, 39, 35, 44)
('21-03-08 00:42:50.25168', 48, 53, 229, 54, 74, 37, 35, 46)
('21-03-08 00:42:50.27169', 47, 52, 185, 60, 78, 40, 43, 45)
('21-03-08 00:42:50.29438', 48, 61, 266, 60, 75, 45, 44, 47)
('21-03-08 00:42:50.30914', 53, 82, 604, 65, 75, 44, 45, 47)
('21-03-08 00:42:50.33199', 63, 86, 755, 67, 78, 50, 46, 47)
('21-03-08 00:42:50.35402', 64, 90, 1005, 75, 90, 54, 53, 45)
('21-03-08 00:42:50.36922', 72, 92, 1132, 82, 91, 66, 66, 46)
('21-03-08 00:42:50.39186', 75, 89, 1130, 82, 93, 65, 68, 47)
('21-03-08 00:42:50.41567', 71, 73, 994, 81, 91, 70, 83, 49)
('21-03-08 00:42:50.42906', 68, 73, 892, 82, 95, 70, 89, 51)
('21-03-08 00:42:50.45164', 70, 70, 601, 75, 85, 71, 89, 51)
('21-03-08 00:42:50.47443', 61, 67, 297, 67, 85, 61, 77, 48)
('21-03-08 00:42:50.48947', 58, 66, 228, 67, 81, 64, 76, 50)
('21-03-08 00:42:50.51298', 53, 55, 196, 59, 84, 61, 63, 47)
('21-03-08 00:42:50.53533', 46, 49, 138, 60, 78, 57, 53, 45)
('21-03-08 00:42:50.55208', 40, 47, 100, 58, 79, 53, 50, 45)
('21-03-08 00:42:50.57175', 43, 48, 68, 56, 73, 55, 48, 47)
('21-03-08 00:42:50.59445', 41, 44, 58, 54, 70, 50, 47, 44)
('21-03-08 00:42:50.60942', 89, 72, 527, 66, 80, 60, 59, 46)
('21-03-08 00:42:50.63348', 125, 123, 835, 72, 80, 74, 69, 46)
('21-03-08 00:42:50.65429', 138, 125, 1037, 78, 90, 81, 72, 47)
('21-03-08 00:42:50.67074', 138, 126, 1138, 79, 89, 85, 77, 50)
('21-03-08 00:42:50.69215', 141, 130, 1259, 79, 94, 94, 77, 48)
('21-03-08 00:42:50.71435', 123, 122, 1187, 70, 81, 88, 69, 46)
('21-03-08 00:42:50.72951', 89, 72, 1087, 67, 80, 77, 61, 50)
('21-03-08 00:42:50.76005', 70, 70, 978, 61, 69, 72, 59, 52)
('21-03-08 00:42:50.77437', 68, 69, 933, 66, 75, 63, 53, 51)
('21-03-08 00:42:50.79004', 62, 62, 793, 66, 76, 54, 55, 50)
('21-03-08 00:42:50.81183', 49, 60, 731, 70, 94, 49, 48, 53)
('21-03-08 00:42:50.83494', 46, 57, 589, 67, 95, 52, 49, 46)
('21-03-08 00:42:50.84935', 38, 54, 443, 67, 99, 51, 46, 47)
('21-03-08 00:42:50.87171', 39, 54, 250, 61, 97, 55, 45, 46)
('21-03-08 00:42:50.89392', 40, 57, 129, 63, 95, 52, 42, 48)
('21-03-08 00:42:50.90966', 52, 52, 123, 63, 80, 52, 40, 45)
('21-03-08 00:42:50.93225', 53, 51, 119, 63, 80, 51, 35, 45)
('21-03-08 00:42:50.95412', 57, 52, 180, 62, 72, 50, 36, 42)
('21-03-08 00:42:50.96939', 57, 52, 336, 60, 65, 48, 35, 42)
('21-03-08 00:42:50.99227', 54, 53, 594, 58, 63, 47, 33, 39)
('21-03-08 00:42:51.01679', 45, 58, 736, 52, 62, 51, 32, 41)
('21-03-08 00:42:51.03112', 44, 58, 775, 54, 59, 51, 33, 46)
('21-03-08 00:42:51.05245', 43, 63, 803, 51, 62, 50, 31, 49)
('21-03-08 00:42:51.07434', 48, 64, 784, 55, 65, 50, 32, 48)
('21-03-08 00:42:51.08952', 49, 59, 627, 61, 74, 49, 34, 51)
('21-03-08 00:42:51.11214', 51, 54, 455, 69, 76, 46, 36, 50)
('21-03-08 00:42:51.13434', 50, 51, 396, 66, 78, 44, 43, 48)
('21-03-08 00:42:51.14987', 46, 46, 322, 66, 78, 45, 44, 42)
('21-03-08 00:42:51.17142', 48, 42, 273, 65, 78, 50, 46, 45)
('21-03-08 00:42:51.19482', 47, 47, 538, 65, 70, 50, 45, 42)
('21-03-08 00:42:51.21697', 57, 49, 752, 67, 74, 60, 64, 44)
('21-03-08 00:42:51.23185', 59, 53, 843, 69, 75, 64, 69, 43)
('21-03-08 00:42:51.25380', 64, 53, 921, 71, 79, 64, 79, 51)
('21-03-08 00:42:51.27640', 60, 56, 949, 71, 77, 59, 79, 50)
('21-03-08 00:42:51.29162', 62, 54, 830, 71, 88, 59, 81, 52)
('21-03-08 00:42:51.31669', 51, 51, 648, 63, 83, 49, 67, 52)
('21-03-08 00:42:51.33655', 48, 52, 519, 62, 80, 47, 60, 52)
('21-03-08 00:42:51.35306', 42, 50, 360, 58, 72, 45, 50, 45)
('21-03-08 00:42:51.37558', 97, 58, 454, 65, 73, 53, 62, 47)
('21-03-08 00:42:51.39755', 131, 104, 629, 78, 67, 62, 66, 47)
('21-03-08 00:42:51.41227', 141, 109, 748, 86, 65, 76, 76, 51)
('21-03-08 00:42:51.43420', 143, 108, 795, 92, 71, 74, 81, 50)
('21-03-08 00:42:51.45625', 144, 113, 856, 94, 79, 77, 81, 54)
('21-03-08 00:42:51.47149', 113, 111, 780, 91, 77, 76, 72, 52)
('21-03-08 00:42:51.49430', 70, 69, 656, 78, 72, 69, 65, 52)
('21-03-08 00:42:51.51671', 53, 63, 579, 68, 80, 58, 54, 46)
('21-03-08 00:42:51.53294', 51, 62, 577, 63, 78, 60, 48, 45)
('21-03-08 00:42:51.55425', 50, 53, 910, 67, 82, 58, 52, 47)
('21-03-08 00:42:51.57679', 56, 45, 948, 65, 84, 60, 59, 47)
('21-03-08 00:42:51.59353', 55, 50, 988, 68, 89, 62, 72, 45)
('21-03-08 00:42:51.61484', 53, 54, 985, 68, 86, 61, 82, 46)
('21-03-08 00:42:51.63723', 54, 55, 955, 67, 84, 62, 83, 53)
('21-03-08 00:42:51.65269', 54, 56, 561, 63, 82, 63, 81, 48)
('21-03-08 00:42:51.67423', 51, 52, 468, 60, 81, 58, 74, 45)
('21-03-08 00:42:51.69639', 51, 51, 334, 56, 78, 56, 63, 49)
('21-03-08 00:42:51.71145', 49, 47, 197, 57, 82, 55, 47, 50)
('21-03-08 00:42:51.73627', 42, 48, 140, 49, 82, 51, 40, 47)
('21-03-08 00:42:51.75670', 43, 47, 123, 48, 80, 46, 38, 50)
('21-03-08 00:42:51.77223', 37, 54, 110, 49, 76, 47, 40, 50)
('21-03-08 00:42:51.79492', 38, 49, 82, 46, 75, 47, 42, 51)
('21-03-08 00:42:51.81677', 36, 45, 61, 44, 70, 48, 44, 48)
('21-03-08 00:42:51.83414', 36, 43, 50, 51, 73, 49, 44, 46)
('21-03-08 00:42:51.86191', 42, 45, 49, 52, 68, 49, 42, 46)
('21-03-08 00:42:51.87627', 47, 43, 53, 52, 71, 47, 39, 50)
('21-03-08 00:42:51.90060', 45, 46, 45, 52, 69, 48, 37, 49)
('21-03-08 00:42:51.91374', 50, 52, 46, 52, 64, 44, 38, 50)
('21-03-08 00:42:51.93681', 52, 51, 47, 50, 63, 47, 39, 47)
('21-03-08 00:42:51.95897', 48, 52, 49, 51, 69, 55, 44, 50)
('21-03-08 00:42:51.97411', 48, 51, 49, 50, 69, 54, 46, 48)
('21-03-08 00:42:51.99776', 51, 51, 51, 47, 73, 55, 46, 45)
('21-03-08 00:42:52.01195', 49, 44, 48, 45, 71, 54, 43, 47)
('21-03-08 00:42:52.03429', 46, 44, 49, 50, 70, 54, 42, 52)
('21-03-08 00:42:52.05648', 46, 46, 52, 53, 72, 49, 42, 49)
('21-03-08 00:42:52.07209', 40, 43, 47, 54, 71, 50, 42, 51)
('21-03-08 00:42:52.09390', 39, 44, 48, 60, 76, 49, 40, 54)
('21-03-08 00:42:52.11634', 131, 182, 339, 90, 89, 66, 51, 58)
('21-03-08 00:42:52.14850', 227, 316, 661, 125, 110, 151, 72, 71)
('21-03-08 00:42:52.15430', 235, 338, 911, 134, 112, 178, 80, 75)
('21-03-08 00:42:52.17680', 239, 349, 1068, 141, 119, 197, 87, 75)
('21-03-08 00:42:52.19994', 246, 355, 1127, 145, 118, 202, 90, 78)
('21-03-08 00:42:52.21513', 213, 317, 1106, 129, 109, 200, 88, 73)
('21-03-08 00:42:52.24001', 106, 190, 961, 101, 88, 154, 73, 57)
('21-03-08 00:42:52.25941', 90, 151, 749, 88, 87, 122, 62, 53)
('21-03-08 00:42:52.27650', 79, 122, 518, 80, 90, 90, 53, 51)
('21-03-08 00:42:52.29787', 56, 109, 384, 70, 89, 81, 51, 43)
('21-03-08 00:42:52.32020', 47, 82, 294, 69, 88, 72, 48, 45)
('21-03-08 00:42:52.33495', 48, 74, 264, 57, 95, 57, 47, 45)
('21-03-08 00:42:52.35975', 50, 70, 207, 54, 92, 58, 49, 45)
('21-03-08 00:42:52.37929', 48, 69, 161, 50, 81, 53, 47, 42)
('21-03-08 00:42:52.39424', 46, 63, 138, 49, 79, 47, 50, 47)
('21-03-08 00:42:52.42047', 45, 55, 141, 50, 83, 48, 50, 47)
('21-03-08 00:42:52.44018', 39, 45, 172, 49, 72, 44, 49, 45)
('21-03-08 00:42:52.45620', 35, 42, 160, 49, 69, 44, 47, 46)
('21-03-08 00:42:52.47692', 35, 43, 161, 46, 66, 47, 49, 48)
('21-03-08 00:42:52.49933', 37, 44, 236, 53, 65, 48, 42, 45)
('21-03-08 00:42:52.51443', 38, 43, 283, 52, 64, 48, 43, 45)
('21-03-08 00:42:52.53637', 41, 43, 289, 53, 63, 53, 43, 45)
('21-03-08 00:42:52.55943', 41, 50, 410, 58, 63, 51, 46, 42)
('21-03-08 00:42:52.57398', 40, 56, 557, 62, 72, 51, 46, 45)
('21-03-08 00:42:52.60482', 46, 55, 608, 58, 69, 52, 47, 42)
('21-03-08 00:42:52.61930', 46, 55, 671, 59, 75, 53, 48, 40)
('21-03-08 00:42:52.63415', 44, 54, 796, 62, 78, 49, 48, 41)
('21-03-08 00:42:52.65762', 44, 48, 818, 59, 82, 48, 45, 41)
('21-03-08 00:42:52.67955', 53, 46, 909, 63, 76, 61, 63, 41)
('21-03-08 00:42:52.69527', 52, 50, 979, 70, 76, 67, 74, 46)
('21-03-08 00:42:52.71712', 55, 55, 965, 68, 72, 68, 84, 47)
('21-03-08 00:42:52.73986', 58, 55, 908, 66, 76, 71, 89, 48)
('21-03-08 00:42:52.75426', 59, 57, 876, 66, 75, 72, 92, 51)
('21-03-08 00:42:52.77743', 50, 56, 696, 63, 72, 60, 82, 48)
('21-03-08 00:42:52.79998', 45, 52, 521, 53, 70, 53, 71, 47)
('21-03-08 00:42:52.81519', 42, 47, 438, 52, 65, 49, 55, 48)
('21-03-08 00:42:52.83720', 39, 47, 319, 50, 57, 46, 43, 44)
('21-03-08 00:42:52.85948', 38, 45, 201, 51, 58, 49, 42, 41)
('21-03-08 00:42:52.87435', 45, 42, 154, 46, 69, 50, 39, 43)
('21-03-08 00:42:52.89670', 47, 45, 126, 46, 72, 51, 39, 39)
('21-03-08 00:42:52.91977', 298, 370, 546, 208, 92, 189, 74, 42)
('21-03-08 00:42:52.94214', 352, 396, 944, 236, 240, 208, 83, 51)
('21-03-08 00:42:52.95665', 375, 430, 1034, 246, 262, 228, 91, 57)
('21-03-08 00:42:52.98062', 379, 436, 1060, 251, 273, 242, 102, 54)
('21-03-08 00:42:52.99532', 382, 441, 1062, 263, 278, 251, 105, 60)
('21-03-08 00:42:53.02530', 248, 270, 948, 174, 278, 186, 88, 59)
('21-03-08 00:42:53.03922', 164, 235, 577, 135, 178, 166, 81, 52)
('21-03-08 00:42:53.05451', 104, 167, 557, 115, 147, 143, 73, 49)
('21-03-08 00:42:53.07756', 85, 152, 632, 104, 121, 122, 57, 51)
('21-03-08 00:42:53.10068', 73, 141, 803, 74, 110, 102, 52, 45)
('21-03-08 00:42:53.12203', 67, 78, 987, 65, 96, 84, 61, 47)
('21-03-08 00:42:53.13672', 67, 69, 998, 67, 88, 84, 69, 50)
('21-03-08 00:42:53.15901', 63, 66, 949, 69, 83, 77, 73, 48)
('21-03-08 00:42:53.18245', 68, 67, 897, 68, 81, 70, 78, 47)
('21-03-08 00:42:53.19737', 68, 59, 759, 65, 75, 69, 82, 48)
('21-03-08 00:42:53.21927', 53, 58, 435, 57, 74, 60, 73, 41)
('21-03-08 00:42:53.24172', 52, 53, 370, 55, 58, 50, 64, 42)
('21-03-08 00:42:53.25852', 51, 49, 273, 57, 66, 47, 59, 42)
('21-03-08 00:42:53.28003', 43, 48, 164, 57, 67, 49, 50, 42)
('21-03-08 00:42:53.30279', 43, 51, 102, 57, 71, 50, 44, 44)
('21-03-08 00:42:53.31681', 43, 54, 91, 54, 71, 48, 49, 46)
('21-03-08 00:42:53.33929', 36, 57, 86, 54, 75, 50, 50, 44)
('21-03-08 00:42:53.36198', 36, 57, 74, 51, 65, 50, 46, 46)
('21-03-08 00:42:53.37724', 38, 58, 62, 49, 68, 51, 49, 46)
('21-03-08 00:42:53.40039', 57, 56, 48, 53, 70, 52, 46, 42)
('21-03-08 00:42:53.42148', 397, 457, 575, 361, 384, 235, 126, 62)
('21-03-08 00:42:53.43681', 466, 520, 904, 440, 554, 294, 132, 77)
('21-03-08 00:42:53.45946', 502, 545, 1125, 454, 582, 329, 144, 82)
('21-03-08 00:42:53.48233', 510, 548, 1237, 477, 606, 359, 148, 82)
('21-03-08 00:42:53.49721', 513, 557, 1255, 491, 609, 371, 150, 86)
('21-03-08 00:42:53.51992', 335, 340, 1130, 347, 487, 301, 92, 74)
('21-03-08 00:42:53.54309', 231, 241, 892, 243, 292, 245, 86, 58)
('21-03-08 00:42:53.55665', 145, 184, 592, 218, 236, 200, 68, 50)
('21-03-08 00:42:53.58211', 113, 172, 314, 164, 168, 141, 57, 49)
('21-03-08 00:42:53.60273', 88, 143, 397, 115, 158, 107, 56, 44)
('21-03-08 00:42:53.61661', 78, 154, 760, 80, 125, 77, 55, 42)
('21-03-08 00:42:53.63991', 108, 154, 975, 67, 94, 74, 57, 40)
('21-03-08 00:42:53.66170', 114, 153, 1015, 63, 74, 61, 62, 51)
('21-03-08 00:42:53.67743', 119, 155, 1014, 58, 67, 62, 69, 57)
('21-03-08 00:42:53.70080', 120, 155, 974, 67, 70, 70, 72, 57)
('21-03-08 00:42:53.72187', 111, 101, 723, 65, 71, 67, 80, 61)
('21-03-08 00:42:53.73662', 81, 77, 389, 69, 75, 63, 83, 61)
('21-03-08 00:42:53.75929', 61, 66, 261, 66, 81, 61, 77, 52)
('21-03-08 00:42:53.78342', 51, 62, 242, 67, 84, 57, 71, 46)
('21-03-08 00:42:53.79734', 48, 60, 185, 59, 76, 41, 67, 47)
('21-03-08 00:42:53.81905', 45, 55, 108, 62, 81, 46, 54, 47)
('21-03-08 00:42:53.84214', 46, 56, 75, 55, 79, 55, 45, 48)
('21-03-08 00:42:53.86567', 42, 57, 71, 56, 83, 58, 43, 47)
('21-03-08 00:42:53.87924', 312, 373, 519, 351, 325, 122, 74, 67)
('21-03-08 00:42:53.90187', 488, 534, 894, 516, 687, 408, 110, 99)
('21-03-08 00:42:53.91727', 524, 561, 1223, 542, 726, 461, 119, 104)
('21-03-08 00:42:53.93926', 536, 580, 1363, 570, 752, 500, 127, 107)
('21-03-08 00:42:53.96195', 542, 589, 1467, 590, 757, 517, 134, 108)
('21-03-08 00:42:53.97676', 449, 466, 1482, 491, 700, 523, 119, 99)
('21-03-08 00:42:54.00013', 252, 275, 1373, 320, 374, 355, 89, 65)
('21-03-08 00:42:54.02209', 168, 219, 1117, 275, 301, 284, 80, 58)
('21-03-08 00:42:54.04434', 125, 176, 1015, 218, 235, 213, 66, 62)
('21-03-08 00:42:54.05946', 101, 144, 1034, 165, 220, 169, 50, 61)
('21-03-08 00:42:54.08477', 81, 122, 1125, 124, 184, 114, 55, 58)
('21-03-08 00:42:54.10524', 75, 102, 1209, 104, 133, 97, 69, 63)
('21-03-08 00:42:54.12022', 67, 95, 1204, 101, 103, 98, 75, 59)
('21-03-08 00:42:54.14182', 65, 71, 1149, 89, 79, 84, 78, 48)
('21-03-08 00:42:54.16528', 69, 72, 1006, 76, 72, 84, 83, 52)
('21-03-08 00:42:54.17913', 63, 70, 720, 62, 65, 75, 82, 56)
('21-03-08 00:42:54.20152', 59, 60, 321, 62, 72, 66, 66, 50)
('21-03-08 00:42:54.22439', 63, 52, 241, 52, 71, 59, 57, 50)
('21-03-08 00:42:54.23936', 61, 51, 202, 47, 74, 60, 58, 50)
('21-03-08 00:42:54.26173', 55, 44, 133, 49, 67, 56, 53, 45)
('21-03-08 00:42:54.28396', 57, 39, 86, 51, 64, 48, 53, 46)
('21-03-08 00:42:54.29996', 53, 45, 76, 57, 56, 49, 55, 47)
('21-03-08 00:42:54.32273', 43, 47, 64, 58, 53, 47, 61, 47)
('21-03-08 00:42:54.34429', 44, 45, 60, 58, 54, 40, 55, 48)
('21-03-08 00:42:54.36733', 60, 44, 53, 56, 61, 39, 53, 51)
('21-03-08 00:42:54.38204', 305, 318, 493, 327, 255, 73, 61, 54)
('21-03-08 00:42:54.40412', 518, 540, 816, 526, 670, 412, 118, 95)
('21-03-08 00:42:54.41914', 560, 594, 1113, 554, 702, 469, 120, 103)
('21-03-08 00:42:54.44284', 576, 620, 1280, 583, 737, 520, 126, 104)
('21-03-08 00:42:54.46571', 583, 629, 1401, 598, 741, 535, 129, 105)
('21-03-08 00:42:54.47938', 505, 551, 1412, 516, 707, 546, 127, 106)
('21-03-08 00:42:54.50262', 291, 349, 1293, 326, 373, 377, 79, 74)
('21-03-08 00:42:54.52506', 202, 248, 1130, 277, 322, 306, 74, 62)
('21-03-08 00:42:54.53954', 151, 180, 1097, 210, 240, 216, 67, 61)
('21-03-08 00:42:54.56255', 114, 156, 1031, 166, 226, 180, 66, 58)
('21-03-08 00:42:54.58507', 93, 133, 1043, 124, 197, 135, 61, 52)
('21-03-08 00:42:54.59999', 70, 98, 1029, 82, 133, 104, 59, 49)
('21-03-08 00:42:54.62185', 71, 96, 1011, 78, 103, 96, 63, 51)
('21-03-08 00:42:54.64488', 77, 94, 875, 80, 92, 80, 74, 50)
('21-03-08 00:42:54.65899', 81, 76, 822, 74, 95, 74, 76, 48)
('21-03-08 00:42:54.68216', 83, 72, 654, 77, 93, 72, 83, 48)
('21-03-08 00:42:54.70394', 80, 76, 612, 72, 86, 65, 89, 47)
('21-03-08 00:42:54.71912', 80, 75, 488, 69, 80, 62, 83, 50)
('21-03-08 00:42:54.74166', 78, 66, 414, 62, 76, 55, 70, 51)
('21-03-08 00:42:54.76485', 70, 67, 284, 60, 73, 48, 65, 51)
('21-03-08 00:42:54.77937', 66, 61, 183, 52, 80, 43, 57, 47)
('21-03-08 00:42:54.80336', 67, 56, 125, 55, 83, 44, 44, 44)
('21-03-08 00:42:54.82427', 54, 50, 107, 57, 88, 46, 48, 40)
('21-03-08 00:42:54.83908', 46, 55, 87, 57, 87, 49, 49, 38)
('21-03-08 00:42:54.86258', 48, 48, 65, 59, 89, 45, 48, 39)
('21-03-08 00:42:54.88411', 49, 49, 52, 58, 84, 50, 46, 41)
('21-03-08 00:42:54.89931', 46, 47, 43, 54, 85, 42, 50, 43)
('21-03-08 00:42:54.92225', 88, 53, 43, 51, 92, 41, 44, 39)
('21-03-08 00:42:54.94441', 97, 57, 46, 49, 91, 40, 45, 40)
('21-03-08 00:42:54.96929', 101, 65, 51, 49, 87, 48, 44, 37)
('21-03-08 00:42:54.98182', 102, 66, 62, 92, 160, 121, 46, 39)
('21-03-08 00:42:55.00401', 194, 94, 127, 120, 197, 149, 44, 46)
('21-03-08 00:42:55.02777', 295, 146, 139, 170, 252, 203, 49, 50)
('21-03-08 00:42:55.04396', 336, 161, 159, 180, 270, 216, 52, 53)
('21-03-08 00:42:55.06568', 354, 173, 181, 184, 279, 224, 57, 57)
('21-03-08 00:42:55.08734', 357, 173, 183, 169, 261, 198, 57, 56)
('21-03-08 00:42:55.10167', 320, 162, 149, 151, 237, 181, 55, 49)
('21-03-08 00:42:55.12533', 222, 120, 137, 94, 179, 121, 55, 53)
('21-03-08 00:42:55.14895', 175, 111, 113, 76, 162, 99, 54, 52)
('21-03-08 00:42:55.16362', 147, 100, 73, 65, 141, 85, 48, 51)
('21-03-08 00:42:55.18459', 157, 103, 54, 60, 116, 78, 45, 53)
('21-03-08 00:42:55.20732', 151, 99, 40, 57, 107, 75, 47, 55)
('21-03-08 00:42:55.22156', 149, 97, 39, 59, 105, 67, 43, 48)
('21-03-08 00:42:55.24456', 120, 77, 36, 55, 94, 68, 43, 48)
('21-03-08 00:42:55.26973', 113, 59, 29, 64, 94, 63, 43, 48)
('21-03-08 00:42:55.28259', 83, 49, 31, 70, 86, 65, 43, 48)
('21-03-08 00:42:55.30459', 123, 62, 38, 70, 96, 68, 41, 45)
('21-03-08 00:42:55.32829', 148, 75, 41, 70, 123, 85, 52, 46)
('21-03-08 00:42:55.34173', 311, 120, 43, 71, 124, 96, 47, 46)
('21-03-08 00:42:55.36674', 311, 128, 47, 67, 132, 93, 49, 46)
('21-03-08 00:42:55.38682', 312, 130, 47, 62, 136, 89, 50, 47)
('21-03-08 00:42:55.40293', 300, 124, 48, 67, 135, 87, 49, 46)
('21-03-08 00:42:55.42438', 286, 116, 48, 66, 103, 71, 39, 47)
('21-03-08 00:42:55.44841', 83, 69, 49, 66, 97, 47, 45, 42)
('21-03-08 00:42:55.46341', 69, 53, 47, 61, 89, 48, 44, 44)
('21-03-08 00:42:55.48436', 63, 54, 45, 61, 80, 47, 47, 40)
('21-03-08 00:42:55.50709', 58, 54, 46, 53, 70, 47, 50, 47)
('21-03-08 00:42:55.52184', 56, 60, 45, 48, 66, 48, 53, 47)
('21-03-08 00:42:55.54417', 49, 59, 45, 50, 60, 51, 48, 48)
('21-03-08 00:42:55.56643', 47, 58, 53, 53, 59, 50, 53, 44)
('21-03-08 00:42:55.58183', 42, 52, 58, 63, 68, 50, 51, 47)
('21-03-08 00:42:55.60451', 46, 49, 56, 66, 68, 46, 51, 45)
('21-03-08 00:42:55.62670', 57, 52, 59, 69, 82, 62, 46, 47)
('21-03-08 00:42:55.64203', 66, 55, 62, 70, 83, 61, 48, 49)
('21-03-08 00:42:55.66560', 132, 56, 61, 66, 80, 63, 43, 63)
('21-03-08 00:42:55.68694', 142, 56, 58, 54, 77, 66, 42, 95)
('21-03-08 00:42:55.70390', 142, 56, 58, 53, 78, 70, 43, 96)
('21-03-08 00:42:55.72535', 138, 44, 53, 51, 66, 56, 48, 94)
('21-03-08 00:42:55.74698', 134, 46, 49, 44, 73, 60, 47, 95)
('21-03-08 00:42:55.76177', 72, 48, 42, 51, 81, 61, 48, 86)
('21-03-08 00:42:55.78409', 87, 66, 46, 50, 79, 62, 48, 48)
('21-03-08 00:42:55.80683', 233, 113, 42, 48, 76, 65, 49, 49)
('21-03-08 00:42:55.82203', 282, 219, 44, 47, 78, 67, 46, 50)
('21-03-08 00:42:55.84422', 286, 229, 56, 57, 87, 68, 44, 57)
('21-03-08 00:42:55.86752', 289, 235, 57, 51, 78, 71, 41, 59)
('21-03-08 00:42:55.88384', 281, 234, 64, 54, 76, 73, 41, 58)
('21-03-08 00:42:55.90442', 180, 219, 66, 59, 79, 64, 43, 68)
('21-03-08 00:42:55.92687', 90, 120, 68, 63, 79, 64, 41, 71)
('21-03-08 00:42:55.95087', 89, 111, 60, 61, 65, 60, 42, 77)
('21-03-08 00:42:55.96568', 88, 99, 61, 63, 70, 55, 50, 85)
('21-03-08 00:42:55.98742', 92, 107, 52, 64, 73, 53, 56, 89)
('21-03-08 00:42:56.01020', 103, 105, 53, 60, 67, 56, 53, 80)
('21-03-08 00:42:56.02594', 101, 108, 51, 56, 65, 58, 53, 88)
('21-03-08 00:42:56.04685', 100, 103, 49, 51, 69, 56, 59, 87)
('21-03-08 00:42:56.07045', 101, 108, 47, 52, 72, 53, 56, 80)
('21-03-08 00:42:56.08501', 108, 108, 47, 48, 72, 52, 53, 80)
('21-03-08 00:42:56.10687', 107, 106, 51, 50, 80, 58, 54, 81)
('21-03-08 00:42:56.13112', 108, 96, 51, 50, 82, 56, 56, 71)
('21-03-08 00:42:56.14421', 98, 87, 52, 51, 83, 55, 52, 63)
('21-03-08 00:42:56.16749', 90, 78, 50, 52, 92, 54, 53, 59)
('21-03-08 00:42:56.19013', 68, 52, 49, 52, 101, 54, 47, 55)
('21-03-08 00:42:56.20414', 52, 49, 44, 48, 101, 49, 46, 71)
('21-03-08 00:42:56.22699', 70, 52, 43, 49, 99, 45, 41, 88)
('21-03-08 00:42:56.25344', 91, 75, 53, 51, 102, 62, 36, 85)
('21-03-08 00:42:56.26470', 103, 81, 56, 55, 107, 64, 30, 91)
('21-03-08 00:42:56.28720', 108, 107, 56, 66, 136, 63, 37, 94)
('21-03-08 00:42:56.31020', 150, 121, 55, 66, 137, 63, 42, 78)
('21-03-08 00:42:56.32452', 160, 128, 59, 69, 144, 73, 44, 76)
('21-03-08 00:42:56.35629', 176, 117, 47, 68, 142, 61, 50, 80)
('21-03-08 00:42:56.37057', 173, 115, 46, 67, 131, 62, 50, 78)
('21-03-08 00:42:56.39269', 171, 95, 50, 67, 92, 65, 49, 75)
('21-03-08 00:42:56.40664', 136, 86, 52, 68, 84, 61, 47, 91)
('21-03-08 00:42:56.43043', 116, 86, 48, 64, 77, 58, 46, 101)
('21-03-08 00:42:56.44399', 69, 87, 50, 62, 74, 62, 43, 102)
('21-03-08 00:42:56.46880', 88, 92, 48, 61, 83, 68, 52, 154)
('21-03-08 00:42:56.49045', 93, 102, 54, 54, 90, 78, 51, 166)
('21-03-08 00:42:56.50469', 112, 93, 52, 53, 102, 80, 51, 164)
('21-03-08 00:42:56.52680', 123, 83, 55, 54, 102, 76, 49, 153)
('21-03-08 00:42:56.55082', 128, 80, 53, 54, 98, 73, 49, 151)
('21-03-08 00:42:56.56536', 116, 78, 56, 55, 123, 78, 48, 94)
('21-03-08 00:42:56.58738', 139, 84, 45, 53, 126, 70, 47, 74)
('21-03-08 00:42:56.61016', 139, 113, 44, 65, 118, 71, 52, 103)
('21-03-08 00:42:56.62583', 134, 134, 40, 66, 115, 69, 57, 102)
('21-03-08 00:42:56.64689', 130, 137, 44, 66, 116, 79, 58, 102)
('21-03-08 00:42:56.67798', 125, 138, 46, 64, 93, 71, 52, 109)
('21-03-08 00:42:56.68433', 161, 154, 50, 64, 100, 70, 56, 183)
('21-03-08 00:42:56.70707', 184, 159, 51, 71, 118, 76, 58, 165)
('21-03-08 00:42:56.73002', 249, 158, 55, 71, 126, 76, 57, 178)
('21-03-08 00:42:56.74418', 253, 159, 55, 70, 126, 64, 59, 181)
('21-03-08 00:42:56.76737', 255, 161, 53, 68, 120, 58, 59, 179)
('21-03-08 00:42:56.79025', 226, 143, 50, 64, 113, 54, 55, 101)
('21-03-08 00:42:56.80449', 214, 135, 49, 43, 102, 50, 49, 102)
('21-03-08 00:42:56.82777', 159, 140, 43, 38, 89, 59, 49, 81)
('21-03-08 00:42:56.84999', 175, 187, 45, 39, 91, 77, 53, 74)
('21-03-08 00:42:56.87261', 179, 193, 47, 40, 91, 80, 54, 72)
('21-03-08 00:42:56.88660', 177, 188, 51, 38, 84, 79, 54, 80)
('21-03-08 00:42:56.91023', 160, 174, 51, 39, 74, 76, 51, 74)
('21-03-08 00:42:56.93522', 128, 153, 56, 40, 73, 67, 49, 69)
('21-03-08 00:42:56.95500', 105, 95, 59, 51, 104, 53, 46, 80)
('21-03-08 00:42:56.96966', 205, 146, 60, 66, 112, 64, 59, 84)
('21-03-08 00:42:56.99245', 247, 199, 61, 73, 114, 68, 59, 78)
('21-03-08 00:42:57.00730', 258, 213, 63, 78, 115, 73, 59, 83)
('21-03-08 00:42:57.02937', 260, 214, 63, 80, 117, 74, 64, 85)
('21-03-08 00:42:57.05260', 265, 215, 60, 75, 92, 70, 61, 72)
('21-03-08 00:42:57.06766', 212, 179, 55, 73, 96, 57, 47, 68)
('21-03-08 00:42:57.09133', 166, 121, 52, 82, 88, 61, 48, 79)
('21-03-08 00:42:57.11260', 156, 107, 46, 86, 91, 60, 50, 166)
('21-03-08 00:42:57.12755', 186, 205, 41, 86, 100, 84, 45, 209)
('21-03-08 00:42:57.14993', 249, 253, 36, 90, 103, 89, 46, 226)
('21-03-08 00:42:57.17264', 259, 269, 41, 90, 107, 96, 43, 228)
('21-03-08 00:42:57.18726', 286, 272, 41, 75, 112, 95, 45, 237)
('21-03-08 00:42:57.21024', 287, 272, 49, 65, 115, 93, 42, 197)
('21-03-08 00:42:57.23270', 268, 209, 51, 66, 109, 72, 43, 157)
('21-03-08 00:42:57.24712', 203, 148, 50, 63, 113, 68, 45, 134)
('21-03-08 00:42:57.26951', 169, 107, 50, 58, 104, 57, 47, 131)
('21-03-08 00:42:57.29360', 109, 95, 47, 60, 102, 52, 46, 172)
('21-03-08 00:42:57.31614', 96, 86, 40, 65, 128, 48, 49, 190)
('21-03-08 00:42:57.32995', 93, 79, 37, 61, 124, 46, 45, 184)
('21-03-08 00:42:57.35324', 81, 62, 38, 57, 119, 46, 43, 184)
('21-03-08 00:42:57.36814', 79, 59, 33, 53, 112, 43, 44, 182)
('21-03-08 00:42:57.38924', 68, 54, 35, 54, 121, 48, 45, 134)
('21-03-08 00:42:57.41268', 122, 79, 41, 56, 106, 57, 44, 190)
('21-03-08 00:42:57.42745', 196, 109, 47, 65, 138, 71, 47, 215)
('21-03-08 00:42:57.45028', 215, 111, 54, 64, 142, 74, 45, 218)
('21-03-08 00:42:57.47277', 219, 114, 55, 62, 139, 78, 45, 222)
('21-03-08 00:42:57.48662', 228, 113, 56, 62, 132, 81, 44, 221)
('21-03-08 00:42:57.50913', 204, 96, 52, 55, 133, 77, 45, 140)
('21-03-08 00:42:57.53219', 138, 63, 47, 46, 97, 64, 43, 97)
('21-03-08 00:42:57.54672', 108, 67, 46, 62, 91, 58, 45, 203)
('21-03-08 00:42:57.56952', 114, 66, 48, 62, 97, 62, 41, 248)
('21-03-08 00:42:57.59362', 100, 72, 46, 65, 125, 56, 40, 252)
('21-03-08 00:42:57.60688', 157, 76, 48, 72, 120, 62, 43, 328)
('21-03-08 00:42:57.62926', 188, 75, 50, 84, 145, 68, 44, 341)
('21-03-08 00:42:57.65240', 228, 81, 53, 76, 193, 71, 47, 291)
('21-03-08 00:42:57.66751', 227, 86, 52, 80, 214, 66, 50, 252)
('21-03-08 00:42:57.68970', 230, 85, 53, 80, 201, 64, 48, 243)
('21-03-08 00:42:57.71271', 203, 79, 51, 75, 200, 63, 44, 124)
('21-03-08 00:42:57.72656', 173, 80, 52, 73, 187, 56, 44, 92)
('21-03-08 00:42:57.74995', 120, 72, 43, 77, 134, 62, 40, 169)
('21-03-08 00:42:57.77245', 113, 67, 42, 70, 94, 59, 39, 197)
('21-03-08 00:42:57.78739', 96, 66, 44, 70, 89, 65, 43, 195)
('21-03-08 00:42:57.80921', 70, 64, 46, 68, 83, 60, 46, 197)
('21-03-08 00:42:57.83340', 69, 62, 47, 54, 76, 62, 46, 192)
('21-03-08 00:42:57.85488', 57, 57, 45, 48, 74, 53, 47, 125)
('21-03-08 00:42:57.86923', 85, 51, 46, 51, 83, 50, 46, 157)
('21-03-08 00:42:57.89253', 96, 46, 46, 50, 81, 49, 44, 176)
('21-03-08 00:42:57.91610', 179, 57, 48, 56, 103, 56, 40, 181)
('21-03-08 00:42:57.92966', 197, 66, 45, 56, 103, 54, 40, 182)
('21-03-08 00:42:57.96031', 205, 67, 49, 52, 107, 64, 40, 182)
('21-03-08 00:42:57.97611', 196, 69, 55, 50, 100, 65, 39, 118)
('21-03-08 00:42:57.98932', 194, 67, 54, 47, 96, 61, 40, 90)
('21-03-08 00:42:58.01253', 123, 63, 53, 37, 67, 55, 44, 72)
('21-03-08 00:42:58.04251', 103, 59, 53, 44, 66, 58, 43, 72)
('21-03-08 00:42:58.04903', 104, 66, 51, 50, 59, 48, 45, 135)
('21-03-08 00:42:58.07279', 96, 64, 47, 49, 70, 49, 44, 147)
('21-03-08 00:42:58.09585', 92, 67, 48, 47, 69, 53, 44, 146)
('21-03-08 00:42:58.10921', 89, 64, 46, 51, 75, 53, 43, 146)
('21-03-08 00:42:58.13328', 118, 76, 43, 49, 100, 55, 47, 226)
('21-03-08 00:42:58.15497', 110, 74, 48, 56, 115, 58, 46, 217)
('21-03-08 00:42:58.17032', 156, 84, 45, 66, 135, 64, 51, 220)
('21-03-08 00:42:58.19258', 165, 87, 45, 68, 137, 60, 52, 221)
('21-03-08 00:42:58.21642', 182, 89, 45, 65, 133, 61, 50, 220)
('21-03-08 00:42:58.22956', 163, 79, 49, 64, 122, 60, 47, 138)
('21-03-08 00:42:58.25328', 160, 73, 43, 57, 117, 60, 46, 98)
('21-03-08 00:42:58.27512', 119, 67, 44, 50, 85, 59, 44, 71)
('21-03-08 00:42:58.28944', 113, 59, 46, 56, 82, 61, 43, 128)
('21-03-08 00:42:58.31258', 88, 58, 44, 61, 87, 59, 42, 140)
('21-03-08 00:42:58.33591', 79, 54, 45, 57, 80, 56, 39, 138)
('21-03-08 00:42:58.35041', 73, 61, 47, 56, 66, 51, 38, 138)
('21-03-08 00:42:58.37245', 65, 59, 47, 56, 68, 46, 39, 134)
('21-03-08 00:42:58.39519', 51, 59, 43, 53, 68, 42, 36, 80)
('21-03-08 00:42:58.40964', 45, 56, 47, 50, 67, 38, 41, 56)
('21-03-08 00:42:58.43367', 43, 55, 45, 54, 67, 38, 48, 49)
('21-03-08 00:42:58.45634', 41, 46, 43, 52, 71, 40, 49, 49)
('21-03-08 00:42:58.47321', 40, 41, 41, 49, 72, 37, 48, 52)
('21-03-08 00:42:58.49334', 39, 42, 42, 52, 71, 40, 49, 52)
('21-03-08 00:42:58.51505', 34, 41, 41, 53, 68, 40, 50, 50)
('21-03-08 00:42:58.52914', 36, 44, 40, 53, 65, 40, 45, 50)
('21-03-08 00:42:58.55245', 44, 46, 45, 59, 63, 42, 45, 47)
('21-03-08 00:42:58.57685', 43, 46, 50, 57, 62, 42, 43, 41)
('21-03-08 00:42:58.58941', 46, 49, 51, 50, 61, 44, 42, 37)
('21-03-08 00:42:58.61227', 49, 51, 50, 49, 60, 49, 40, 37)
('21-03-08 00:42:58.63600', 55, 49, 51, 49, 67, 55, 47, 54)
('21-03-08 00:42:58.64931', 49, 62, 52, 46, 63, 52, 46, 62)
('21-03-08 00:42:58.67239', 51, 63, 50, 45, 62, 68, 47, 64)
('21-03-08 00:42:58.69628', 52, 62, 48, 55, 67, 75, 48, 73)
('21-03-08 00:42:58.70942', 53, 67, 51, 53, 69, 72, 51, 78)
('21-03-08 00:42:58.73344', 48, 70, 50, 52, 67, 70, 54, 72)
('21-03-08 00:42:58.75493', 55, 62, 48, 57, 72, 72, 55, 69)
('21-03-08 00:42:58.77750', 58, 67, 48, 59, 73, 76, 54, 67)
('21-03-08 00:42:58.79236', 59, 65, 46, 51, 73, 66, 53, 58)
('21-03-08 00:42:58.81522', 56, 62, 44, 50, 70, 70, 47, 55)
('21-03-08 00:42:58.83846', 55, 57, 47, 54, 68, 72, 37, 47)
('21-03-08 00:42:58.85379', 56, 53, 46, 45, 61, 78, 37, 42)
('21-03-08 00:42:58.87597', 57, 51, 47, 49, 60, 63, 41, 44)
('21-03-08 00:42:58.89768', 55, 54, 49, 50, 55, 76, 42, 49)
('21-03-08 00:42:58.91183', 58, 49, 49, 53, 59, 73, 43, 48)
('21-03-08 00:42:58.93673', 63, 52, 47, 48, 63, 71, 47, 48)
('21-03-08 00:42:58.95794', 64, 55, 47, 48, 69, 64, 48, 46)
('21-03-08 00:42:58.97314', 61, 49, 45, 45, 68, 64, 46, 54)
('21-03-08 00:42:58.99496', 59, 49, 48, 46, 68, 50, 45, 47)
('21-03-08 00:42:59.01783', 59, 57, 45, 43, 64, 52, 45, 48)
('21-03-08 00:42:59.03202', 58, 55, 45, 42, 61, 50, 40, 56)
('21-03-08 00:42:59.05522', 51, 52, 48, 48, 63, 50, 41, 59)
('21-03-08 00:42:59.08600', 48, 57, 50, 47, 61, 50, 39, 53)
('21-03-08 00:42:59.09219', 50, 54, 49, 44, 62, 50, 39, 55)
('21-03-08 00:42:59.11572', 48, 43, 51, 43, 65, 52, 39, 53)
('21-03-08 00:42:59.13726', 49, 45, 55, 41, 61, 60, 39, 48)
('21-03-08 00:42:59.15273', 47, 47, 52, 34, 53, 57, 37, 47)
('21-03-08 00:42:59.17535', 49, 44, 50, 33, 54, 55, 38, 47)
('21-03-08 00:42:59.19940', 54, 42, 49, 35, 58, 57, 39, 49)
('21-03-08 00:42:59.21172', 51, 45, 52, 36, 59, 56, 38, 50)
('21-03-08 00:42:59.24341', 45, 44, 49, 39, 64, 48, 38, 50)
('21-03-08 00:42:59.25973', 44, 45, 51, 42, 64, 49, 40, 52)
('21-03-08 00:42:59.27176', 42, 48, 48, 47, 60, 50, 38, 54)
('21-03-08 00:42:59.29551', 34, 50, 48, 47, 59, 49, 43, 52)
('21-03-08 00:42:59.31751', 34, 49, 42, 46, 60, 51, 46, 53)
('21-03-08 00:42:59.33320', 35, 48, 41, 50, 63, 50, 47, 52)
('21-03-08 00:42:59.36333', 37, 44, 38, 49, 69, 50, 49, 50)
('21-03-08 00:42:59.37740', 37, 39, 41, 45, 72, 49, 48, 47)
('21-03-08 00:42:59.39218', 36, 37, 37, 43, 70, 47, 43, 47)
('21-03-08 00:42:59.41809', 40, 39, 37, 48, 74, 52, 44, 43)
('21-03-08 00:42:59.43881', 38, 40, 36, 44, 76, 54, 43, 44)
('21-03-08 00:42:59.45303', 36, 41, 36, 42, 74, 60, 43, 56)
('21-03-08 00:42:59.47494', 47, 41, 38, 45, 73, 61, 46, 57)
('21-03-08 00:42:59.49750', 48, 44, 38, 46, 73, 64, 53, 57)
('21-03-08 00:42:59.51212', 48, 46, 40, 42, 66, 59, 52, 60)
('21-03-08 00:42:59.53640', 52, 49, 44, 42, 57, 56, 52, 59)
('21-03-08 00:42:59.55766', 54, 52, 48, 45, 65, 49, 50, 54)
('21-03-08 00:42:59.57179', 45, 55, 45, 42, 65, 51, 50, 53)
('21-03-08 00:42:59.59438', 54, 71, 49, 40, 67, 45, 44, 57)
('21-03-08 00:42:59.61844', 68, 77, 49, 44, 70, 46, 51, 62)
('21-03-08 00:42:59.64016', 85, 80, 45, 50, 80, 51, 53, 66)
('21-03-08 00:42:59.65601', 87, 85, 43, 49, 76, 53, 57, 63)
('21-03-08 00:42:59.67784', 88, 85, 43, 51, 85, 56, 56, 67)
('21-03-08 00:42:59.70090', 84, 74, 40, 58, 86, 58, 56, 70)
('21-03-08 00:42:59.71549', 71, 65, 44, 63, 83, 65, 47, 62)
('21-03-08 00:42:59.73828', 48, 57, 47, 57, 79, 62, 44, 59)
('21-03-08 00:42:59.75992', 43, 47, 47, 59, 75, 60, 38, 58)
('21-03-08 00:42:59.77428', 51, 50, 46, 59, 65, 54, 38, 52)
('21-03-08 00:42:59.79862', 77, 71, 48, 54, 71, 55, 44, 59)
('21-03-08 00:42:59.82019', 86, 90, 47, 57, 68, 83, 53, 60)
('21-03-08 00:42:59.83482', 134, 96, 44, 59, 65, 86, 56, 72)
('21-03-08 00:42:59.85758', 142, 98, 42, 59, 70, 92, 60, 79)
('21-03-08 00:42:59.88092', 139, 99, 45, 58, 72, 94, 61, 79)
('21-03-08 00:42:59.89406', 132, 82, 46, 63, 63, 101, 54, 78)
('21-03-08 00:42:59.91783', 127, 63, 43, 65, 70, 73, 47, 79)
('21-03-08 00:42:59.94016', 80, 59, 56, 69, 90, 79, 43, 68)
('21-03-08 00:42:59.95461', 65, 62, 64, 68, 88, 77, 34, 58)
('21-03-08 00:42:59.97748', 65, 63, 68, 73, 103, 77, 31, 62)
('21-03-08 00:43:00.00811', 52, 72, 75, 75, 123, 66, 34, 52)
('21-03-08 00:43:00.01424', 53, 87, 76, 67, 129, 77, 40, 50)
('21-03-08 00:43:00.04044', 49, 94, 69, 60, 119, 68, 39, 51)
('21-03-08 00:43:00.06028', 49, 91, 63, 63, 125, 64, 41, 54)
('21-03-08 00:43:00.07408', 50, 93, 61, 58, 114, 60, 41, 52)
('21-03-08 00:43:00.09757', 50, 91, 50, 49, 96, 61, 43, 52)
('21-03-08 00:43:00.12032', 58, 76, 50, 45, 82, 44, 40, 58)
('21-03-08 00:43:00.13488', 56, 69, 51, 45, 83, 42, 44, 63)
('21-03-08 00:43:00.15766', 54, 84, 50, 39, 73, 40, 48, 61)
('21-03-08 00:43:00.18125', 55, 80, 43, 42, 91, 55, 51, 60)
('21-03-08 00:43:00.19548', 62, 79, 51, 40, 89, 52, 49, 56)
('21-03-08 00:43:00.21916', 54, 79, 50, 42, 91, 57, 47, 53)
('21-03-08 00:43:00.24059', 54, 81, 51, 43, 90, 58, 44, 48)
('21-03-08 00:43:00.25517', 69, 89, 51, 43, 92, 59, 40, 71)
('21-03-08 00:43:00.27733', 79, 105, 52, 43, 75, 47, 38, 76)
('21-03-08 00:43:00.30065', 76, 106, 50, 48, 85, 49, 38, 77)
('21-03-08 00:43:00.31493', 77, 106, 50, 48, 100, 49, 38, 77)
('21-03-08 00:43:00.33826', 79, 114, 53, 61, 106, 54, 39, 75)
('21-03-08 00:43:00.36061', 73, 111, 56, 64, 111, 57, 39, 59)
('21-03-08 00:43:00.37480', 65, 97, 55, 63, 118, 62, 41, 51)
('21-03-08 00:43:00.39975', 68, 95, 50, 65, 122, 65, 40, 49)
('21-03-08 00:43:00.42089', 67, 95, 51, 68, 117, 63, 38, 49)
('21-03-08 00:43:00.43491', 64, 79, 54, 63, 113, 60, 40, 53)
('21-03-08 00:43:00.45832', 87, 83, 52, 64, 114, 60, 40, 67)
('21-03-08 00:43:00.48001', 97, 87, 54, 70, 107, 53, 38, 74)
('21-03-08 00:43:00.49399', 94, 89, 56, 73, 93, 47, 39, 83)
('21-03-08 00:43:00.51916', 96, 93, 54, 70, 87, 55, 45, 84)
('21-03-08 00:43:00.54016', 95, 96, 48, 71, 87, 56, 50, 86)
('21-03-08 00:43:00.55394', 71, 79, 51, 72, 90, 56, 48, 73)
('21-03-08 00:43:00.57770', 53, 69, 50, 67, 90, 60, 51, 65)
('21-03-08 00:43:00.60011', 52, 63, 56, 63, 100, 60, 51, 52)
('21-03-08 00:43:00.62257', 51, 56, 59, 64, 97, 51, 48, 46)
('21-03-08 00:43:00.63710', 53, 49, 57, 58, 93, 48, 39, 37)
('21-03-08 00:43:00.66167', 53, 44, 55, 50, 79, 47, 42, 33)
('21-03-08 00:43:00.68275', 52, 45, 56, 52, 74, 45, 37, 33)
('21-03-08 00:43:00.69792', 51, 41, 50, 51, 73, 45, 39, 41)
('21-03-08 00:43:00.72000', 47, 40, 51, 51, 73, 51, 40, 46)
('21-03-08 00:43:00.75074', 47, 45, 54, 58, 77, 51, 44, 47)
('21-03-08 00:43:00.75681', 44, 40, 51, 59, 82, 50, 45, 49)
('21-03-08 00:43:00.78109', 46, 39, 50, 56, 83, 52, 50, 50)
('21-03-08 00:43:00.80436', 50, 40, 46, 52, 69, 55, 51, 47)
('21-03-08 00:43:00.81724', 50, 44, 42, 58, 79, 59, 50, 45)
('21-03-08 00:43:00.84138', 51, 42, 48, 58, 82, 66, 48, 47)
('21-03-08 00:43:00.86279', 51, 45, 51, 60, 79, 71, 47, 46)
('21-03-08 00:43:00.87694', 49, 45, 53, 60, 81, 70, 41, 46)
('21-03-08 00:43:00.90016', 43, 44, 54, 60, 91, 67, 38, 44)
('21-03-08 00:43:00.92210', 45, 39, 56, 50, 89, 61, 41, 46)
('21-03-08 00:43:00.93648', 47, 39, 50, 47, 78, 57, 42, 43)
('21-03-08 00:43:00.95970', 49, 41, 49, 48, 81, 53, 42, 44)
('21-03-08 00:43:00.98213', 49, 42, 48, 49, 85, 53, 47, 50)
('21-03-08 00:43:00.99715', 50, 44, 50, 49, 80, 58, 46, 50)
('21-03-08 00:43:01.01978', 50, 47, 48, 54, 76, 58, 48, 48)
('21-03-08 00:43:01.04253', 43, 49, 46, 53, 80, 58, 45, 49)
('21-03-08 00:43:01.06519', 39, 46, 44, 49, 79, 57, 42, 50)
('21-03-08 00:43:01.08219', 40, 47, 40, 50, 75, 55, 37, 44)
('21-03-08 00:43:01.10290', 43, 48, 42, 55, 71, 49, 39, 46)
('21-03-08 00:43:01.11697', 41, 47, 42, 57, 76, 49, 39, 48)
('21-03-08 00:43:01.13968', 42, 43, 42, 57, 72, 45, 40, 50)
('21-03-08 00:43:01.16337', 40, 45, 41, 57, 70, 42, 49, 45)
('21-03-08 00:43:01.17712', 39, 46, 42, 54, 69, 43, 52, 47)
('21-03-08 00:43:01.20154', 38, 44, 41, 51, 73, 47, 55, 45)
('21-03-08 00:43:01.22244', 39, 42, 45, 49, 68, 46, 50, 51)
('21-03-08 00:43:01.23688', 40, 45, 46, 48, 73, 47, 51, 51)
('21-03-08 00:43:01.26097', 43, 46, 49, 49, 75, 47, 45, 57)
('21-03-08 00:43:01.28415', 45, 52, 52, 54, 80, 45, 43, 54)
('21-03-08 00:43:01.29739', 43, 55, 53, 54, 77, 47, 37, 59)
('21-03-08 00:43:01.32073', 45, 56, 52, 49, 82, 48, 42, 56)
('21-03-08 00:43:01.34317', 43, 52, 50, 53, 79, 52, 41, 56)
('21-03-08 00:43:01.35677', 41, 52, 53, 55, 76, 63, 43, 53)
('21-03-08 00:43:01.38122', 43, 51, 48, 53, 71, 64, 46, 57)
('21-03-08 00:43:01.40316', 43, 51, 47, 48, 72, 59, 48, 50)
('21-03-08 00:43:01.41749', 40, 56, 46, 53, 66, 59, 46, 47)
('21-03-08 00:43:01.44044', 40, 60, 49, 54, 73, 59, 46, 45)
('21-03-08 00:43:01.47049', 41, 59, 42, 57, 78, 51, 43, 44)
('21-03-08 00:43:01.48492', 37, 56, 41, 56, 75, 49, 39, 41)
('21-03-08 00:43:01.50131', 38, 52, 39, 59, 83, 55, 39, 43)
('21-03-08 00:43:01.52278', 39, 47, 39, 64, 82, 54, 40, 40)
('21-03-08 00:43:01.54581', 42, 43, 35, 62, 87, 55, 43, 41)
('21-03-08 00:43:01.56000', 43, 43, 38, 62, 84, 59, 45, 39)
('21-03-08 00:43:01.58503', 48, 45, 43, 64, 91, 60, 46, 41)
('21-03-08 00:43:01.60514', 48, 52, 43, 61, 80, 55, 45, 43)
('21-03-08 00:43:01.61897', 48, 58, 44, 58, 77, 55, 42, 42)
('21-03-08 00:43:01.65072', 50, 61, 53, 55, 63, 49, 37, 39)
('21-03-08 00:43:01.66518', 56, 61, 53, 49, 75, 54, 36, 44)
('21-03-08 00:43:01.67939', 59, 69, 56, 44, 69, 53, 35, 42)
('21-03-08 00:43:01.70361', 66, 65, 58, 45, 70, 54, 37, 43)
('21-03-08 00:43:01.72511', 67, 65, 59, 40, 70, 58, 38, 43)
('21-03-08 00:43:01.73984', 71, 65, 51, 43, 72, 58, 38, 46)
('21-03-08 00:43:01.76256', 67, 68, 50, 48, 61, 45, 37, 42)
('21-03-08 00:43:01.79271', 60, 61, 42, 48, 84, 49, 40, 45)
('21-03-08 00:43:01.80039', 54, 61, 39, 54, 84, 53, 37, 41)
('21-03-08 00:43:01.82334', 51, 59, 35, 51, 83, 47, 39, 46)
('21-03-08 00:43:01.84624', 40, 56, 39, 50, 95, 48, 41, 48)
('21-03-08 00:43:01.85995', 45, 55, 42, 48, 100, 52, 44, 48)
('21-03-08 00:43:01.88459', 46, 53, 45, 48, 83, 51, 41, 48)
('21-03-08 00:43:01.90561', 48, 53, 47, 41, 97, 50, 40, 49)
('21-03-08 00:43:01.91936', 47, 60, 54, 45, 101, 52, 41, 48)
('21-03-08 00:43:01.94253', 49, 63, 56, 49, 91, 52, 43, 47)
('21-03-08 00:43:01.96596', 47, 64, 55, 48, 89, 54, 39, 52)
('21-03-08 00:43:01.98099', 47, 65, 54, 48, 117, 60, 39, 58)
('21-03-08 00:43:02.00321', 46, 61, 51, 51, 109, 62, 40, 59)
('21-03-08 00:43:02.02515', 49, 54, 45, 56, 114, 61, 39, 56)
('21-03-08 00:43:02.03960', 45, 56, 48, 51, 135, 63, 39, 56)
('21-03-08 00:43:02.06243', 44, 59, 46, 52, 133, 58, 43, 54)
('21-03-08 00:43:02.08684', 50, 57, 50, 56, 109, 52, 43, 44)
('21-03-08 00:43:02.09963', 48, 58, 53, 57, 116, 49, 42, 44)
('21-03-08 00:43:02.12244', 47, 55, 52, 51, 112, 49, 45, 48)
('21-03-08 00:43:02.14477', 51, 53, 47, 54, 105, 51, 49, 44)
('21-03-08 00:43:02.15926', 51, 42, 44, 52, 102, 51, 44, 44)
('21-03-08 00:43:02.18391', 47, 44, 44, 52, 102, 69, 45, 47)
('21-03-08 00:43:02.20504', 49, 52, 39, 50, 96, 69, 47, 46)
('21-03-08 00:43:02.22051', 47, 57, 40, 53, 92, 69, 42, 44)
('21-03-08 00:43:02.24297', 44, 58, 36, 55, 64, 65, 35, 44)
('21-03-08 00:43:02.26518', 44, 62, 41, 58, 66, 64, 41, 43)
('21-03-08 00:43:02.27927', 43, 62, 38, 54, 67, 41, 42, 42)
('21-03-08 00:43:02.30471', 46, 58, 41, 54, 59, 38, 39, 43)
('21-03-08 00:43:02.32530', 48, 51, 41, 55, 53, 32, 41, 41)
('21-03-08 00:43:02.34043', 52, 51, 45, 50, 56, 29, 40, 41)
('21-03-08 00:43:02.36283', 48, 51, 45, 51, 67, 39, 36, 40)
('21-03-08 00:43:02.38580', 48, 49, 44, 51, 67, 46, 32, 39)
('21-03-08 00:43:02.40051', 46, 49, 49, 51, 66, 48, 38, 37)
('21-03-08 00:43:02.42408', 46, 58, 48, 47, 70, 53, 39, 43)
('21-03-08 00:43:02.44511', 47, 59, 54, 50, 70, 55, 42, 43)
('21-03-08 00:43:02.45975', 51, 57, 55, 47, 65, 51, 40, 44)
('21-03-08 00:43:02.48278', 53, 57, 55, 50, 94, 47, 42, 44)
('21-03-08 00:43:02.50525', 52, 56, 50, 51, 99, 49, 41, 45)
('21-03-08 00:43:02.51993', 51, 52, 51, 51, 99, 46, 43, 43)
('21-03-08 00:43:02.54297', 48, 54, 41, 53, 100, 49, 44, 44)
('21-03-08 00:43:02.56520', 46, 51, 41, 55, 103, 49, 43, 48)
('21-03-08 00:43:02.58759', 43, 53, 42, 58, 82, 49, 47, 47)
('21-03-08 00:43:02.60262', 43, 53, 41, 57, 80, 50, 43, 45)
('21-03-08 00:43:02.62496', 49, 51, 39, 59, 81, 51, 39, 46)
('21-03-08 00:43:02.64747', 50, 46, 42, 57, 81, 48, 36, 43)
('21-03-08 00:43:02.66244', 47, 48, 41, 56, 73, 52, 41, 44)
('21-03-08 00:43:02.68504', 47, 47, 42, 50, 64, 55, 38, 49)
('21-03-08 00:43:02.70722', 50, 44, 44, 54, 68, 53, 41, 49)
('21-03-08 00:43:02.72252', 45, 45, 47, 52, 67, 53, 42, 47)
('21-03-08 00:43:02.74489', 44, 44, 44, 55, 71, 52, 43, 47)
('21-03-08 00:43:02.76797', 47, 42, 40, 56, 78, 48, 39, 44)
('21-03-08 00:43:02.78207', 47, 43, 43, 55, 79, 42, 37, 41)
('21-03-08 00:43:02.80568', 44, 42, 40, 49, 75, 42, 34, 43)
('21-03-08 00:43:02.82773', 45, 46, 47, 50, 76, 40, 38, 43)
('21-03-08 00:43:02.84263', 51, 47, 51, 47, 72, 39, 40, 43)
('21-03-08 00:43:02.86602', 53, 51, 54, 47, 66, 42, 40, 44)
('21-03-08 00:43:02.88748', 53, 49, 51, 48, 72, 48, 42, 41)
('21-03-08 00:43:02.91001', 54, 53, 54, 48, 69, 45, 45, 40)
('21-03-08 00:43:02.92544', 52, 51, 48, 50, 80, 49, 42, 40)
('21-03-08 00:43:02.94855', 47, 49, 48, 50, 78, 51, 38, 42)
('21-03-08 00:43:02.96175', 45, 45, 53, 47, 79, 50, 38, 42)
('21-03-08 00:43:02.98522', 45, 44, 51, 47, 77, 48, 36, 45)
('21-03-08 00:43:03.00749', 44, 40, 51, 51, 79, 51, 33, 45)
('21-03-08 00:43:03.02439', 42, 36, 52, 48, 68, 51, 33, 42)
('21-03-08 00:43:03.04522', 40, 41, 51, 51, 73, 50, 34, 42)
('21-03-08 00:43:03.06774', 37, 41, 44, 53, 72, 49, 37, 40)
('21-03-08 00:43:03.08287', 37, 42, 44, 58, 68, 49, 39, 40)
('21-03-08 00:43:03.10598', 35, 43, 44, 55, 67, 49, 43, 37)
('21-03-08 00:43:03.12773', 38, 45, 39, 54, 66, 50, 44, 37)
('21-03-08 00:43:03.14227', 40, 44, 39, 52, 64, 51, 46, 36)
('21-03-08 00:43:03.16641', 43, 44, 45, 46, 65, 49, 42, 34)
('21-03-08 00:43:03.18741', 44, 47, 46, 42, 64, 54, 44, 33)
('21-03-08 00:43:03.20180', 46, 48, 47, 48, 72, 54, 41, 39)
('21-03-08 00:43:03.22492', 46, 50, 46, 46, 69, 51, 39, 43)
('21-03-08 00:43:03.24837', 44, 47, 51, 45, 66, 54, 39, 44)
('21-03-08 00:43:03.26178', 47, 48, 47, 46, 70, 52, 41, 46)
('21-03-08 00:43:03.29283', 46, 47, 48, 43, 72, 46, 42, 47)
('21-03-08 00:43:03.30764', 44, 46, 46, 43, 69, 44, 41, 46)
('21-03-08 00:43:03.32192', 43, 44, 48, 44, 67, 44, 41, 42)
('21-03-08 00:43:03.34477', 44, 48, 43, 47, 67, 41, 38, 45)
('21-03-08 00:43:03.36780', 49, 47, 41, 47, 66, 43, 39, 43)
('21-03-08 00:43:03.38275', 46, 50, 39, 50, 64, 44, 37, 48)
('21-03-08 00:43:03.40605', 49, 46, 42, 53, 67, 43, 41, 47)
('21-03-08 00:43:03.42853', 52, 45, 45, 54, 71, 44, 49, 47)
('21-03-08 00:43:03.44210', 50, 44, 44, 55, 71, 43, 50, 44)
('21-03-08 00:43:03.46603', 44, 44, 47, 57, 76, 41, 53, 46)
('21-03-08 00:43:03.48792', 50, 42, 54, 60, 89, 52, 56, 41)
('21-03-08 00:43:03.51082', 51, 54, 51, 55, 108, 56, 53, 40)
('21-03-08 00:43:03.52421', 51, 56, 49, 54, 107, 57, 47, 42)
('21-03-08 00:43:03.54843', 51, 57, 50, 50, 108, 64, 47, 49)
('21-03-08 00:43:03.57136', 48, 59, 53, 55, 101, 66, 45, 48)
('21-03-08 00:43:03.58504', 42, 59, 46, 46, 94, 61, 40, 45)
('21-03-08 00:43:03.60752', 41, 52, 47, 46, 66, 56, 40, 45)
('21-03-08 00:43:03.63052', 37, 51, 47, 45, 67, 53, 41, 44)
('21-03-08 00:43:03.64405', 38, 50, 49, 46, 67, 43, 38, 37)
('21-03-08 00:43:03.66832', 40, 53, 46, 39, 70, 39, 37, 36)
('21-03-08 00:43:03.68994', 43, 50, 50, 42, 64, 37, 37, 35)
('21-03-08 00:43:03.70456', 43, 54, 48, 43, 63, 36, 38, 35)
('21-03-08 00:43:03.72732', 47, 55, 48, 44, 62, 39, 39, 35)
('21-03-08 00:43:03.75061', 46, 56, 52, 46, 56, 41, 43, 37)
('21-03-08 00:43:03.76487', 46, 50, 56, 44, 53, 41, 43, 38)
('21-03-08 00:43:03.78868', 46, 53, 53, 45, 58, 40, 44, 39)
('21-03-08 00:43:03.81004', 47, 50, 54, 41, 61, 45, 41, 40)
('21-03-08 00:43:03.82439', 47, 50, 57, 41, 61, 46, 40, 38)
('21-03-08 00:43:03.84833', 49, 52, 51, 44, 69, 47, 38, 37)
('21-03-08 00:43:03.87115', 53, 55, 46, 46, 71, 48, 39, 39)
('21-03-08 00:43:03.88524', 52, 64, 47, 45, 72, 51, 36, 38)
('21-03-08 00:43:03.90779', 50, 68, 52, 49, 71, 52, 34, 39)
('21-03-08 00:43:03.93030', 48, 70, 49, 52, 72, 57, 39, 41)
('21-03-08 00:43:03.94407', 51, 67, 48, 46, 68, 57, 40, 44)
('21-03-08 00:43:03.97004', 50, 72, 50, 54, 74, 56, 38, 41)
('21-03-08 00:43:03.98909', 52, 65, 55, 53, 68, 53, 38, 47)
('21-03-08 00:43:04.01484', 56, 67, 54, 55, 65, 55, 42, 46)
('21-03-08 00:43:04.02845', 57, 64, 53, 53, 62, 51, 38, 44)
('21-03-08 00:43:04.04965', 56, 66, 52, 54, 60, 52, 35, 43)
('21-03-08 00:43:04.07195', 52, 63, 48, 44, 59, 55, 34, 42)
('21-03-08 00:43:04.09079', 49, 62, 45, 51, 60, 55, 37, 38)
('21-03-08 00:43:04.11009', 44, 55, 42, 45, 61, 48, 36, 36)
('21-03-08 00:43:04.13188', 39, 53, 43, 45, 64, 47, 36, 37)
('21-03-08 00:43:04.14997', 35, 49, 45, 47, 64, 46, 38, 37)
('21-03-08 00:43:04.17100', 42, 53, 50, 51, 56, 48, 40, 40)
('21-03-08 00:43:04.19200', 55, 71, 46, 52, 57, 56, 40, 44)
('21-03-08 00:43:04.20969', 64, 71, 52, 56, 61, 60, 39, 44)
('21-03-08 00:43:04.22911', 68, 77, 51, 56, 60, 56, 42, 48)
('21-03-08 00:43:04.25395', 70, 82, 54, 57, 67, 63, 44, 50)
('21-03-08 00:43:04.26814', 70, 87, 48, 57, 70, 61, 48, 53)
('21-03-08 00:43:04.29039', 63, 82, 50, 54, 66, 60, 50, 55)
('21-03-08 00:43:04.31206', 56, 87, 45, 54, 72, 63, 50, 58)
('21-03-08 00:43:04.33096', 56, 87, 46, 56, 71, 66, 51, 57)
('21-03-08 00:43:04.34940', 54, 92, 42, 54, 67, 60, 49, 54)
('21-03-08 00:43:04.37166', 49, 83, 47, 51, 70, 58, 48, 51)
('21-03-08 00:43:04.38983', 48, 74, 51, 47, 74, 51, 45, 46)
('21-03-08 00:43:04.41097', 45, 66, 51, 46, 68, 45, 49, 44)
('21-03-08 00:43:04.43322', 41, 62, 48, 44, 74, 47, 45, 43)
('21-03-08 00:43:04.44889', 41, 50, 49, 49, 72, 43, 45, 43)
('21-03-08 00:43:04.47173', 39, 51, 47, 49, 72, 44, 46, 42)
('21-03-08 00:43:04.49245', 38, 54, 42, 54, 73, 48, 46, 43)
('21-03-08 00:43:04.50898', 38, 53, 40, 57, 75, 45, 46, 40)
('21-03-08 00:43:04.52915', 38, 49, 41, 56, 73, 44, 47, 40)
('21-03-08 00:43:04.55279', 36, 49, 37, 51, 74, 50, 46, 39)
('21-03-08 00:43:04.56979', 44, 50, 36, 54, 70, 50, 41, 38)
('21-03-08 00:43:04.58949', 44, 50, 36, 52, 67, 46, 42, 38)
('21-03-08 00:43:04.61196', 46, 53, 37, 46, 61, 45, 38, 38)
('21-03-08 00:43:04.62880', 47, 55, 42, 44, 57, 43, 41, 37)
('21-03-08 00:43:04.64903', 48, 55, 43, 46, 56, 48, 40, 44)
('21-03-08 00:43:04.67203', 41, 54, 45, 46, 56, 54, 40, 45)
('21-03-08 00:43:04.69052', 41, 50, 45, 42, 51, 55, 42, 44)
('21-03-08 00:43:04.70949', 40, 51, 44, 44, 52, 54, 43, 46)
('21-03-08 00:43:04.73169', 44, 48, 41, 47, 55, 58, 42, 47)
('21-03-08 00:43:04.74839', 44, 50, 42, 45, 53, 52, 43, 41)
('21-03-08 00:43:04.76971', 47, 48, 46, 42, 52, 45, 46, 42)
('21-03-08 00:43:04.79351', 47, 46, 42, 44, 52, 48, 44, 46)
('21-03-08 00:43:04.80811', 50, 43, 42, 43, 53, 50, 43, 45)
('21-03-08 00:43:04.83012', 48, 48, 41, 42, 55, 46, 40, 44)
('21-03-08 00:43:04.85243', 50, 45, 40, 44, 60, 46, 39, 46)
('21-03-08 00:43:04.86889', 49, 45, 40, 44, 59, 46, 34, 48)
('21-03-08 00:43:04.88965', 47, 48, 40, 47, 61, 41, 37, 49)
('21-03-08 00:43:04.91377', 45, 46, 40, 51, 66, 43, 36, 53)
('21-03-08 00:43:04.92844', 40, 42, 37, 49, 62, 45, 40, 55)
('21-03-08 00:43:04.96078', 38, 43, 43, 46, 58, 44, 42, 57)
('21-03-08 00:43:04.97153', 46, 47, 42, 47, 59, 46, 45, 56)
('21-03-08 00:43:04.99633', 47, 43, 44, 44, 59, 48, 45, 53)
('21-03-08 00:43:05.01075', 50, 53, 49, 42, 54, 44, 45, 47)
('21-03-08 00:43:05.03191', 52, 55, 51, 43, 53, 42, 44, 46)
('21-03-08 00:43:05.05427', 52, 56, 48, 46, 57, 45, 46, 45)
('21-03-08 00:43:05.07157', 45, 57, 49, 45, 64, 47, 49, 42)
('21-03-08 00:43:05.09277', 48, 58, 53, 48, 71, 48, 50, 42)
('21-03-08 00:43:05.11636', 62, 69, 49, 47, 73, 58, 55, 48)
('21-03-08 00:43:05.13318', 79, 90, 55, 43, 79, 66, 54, 48)
('21-03-08 00:43:05.15304', 91, 105, 57, 50, 74, 64, 53, 53)
('21-03-08 00:43:05.17469', 99, 115, 54, 53, 72, 69, 50, 61)
('21-03-08 00:43:05.19128', 102, 120, 49, 52, 73, 69, 50, 60)
('21-03-08 00:43:05.21171', 96, 114, 52, 59, 78, 66, 47, 60)
('21-03-08 00:43:05.23907', 83, 101, 47, 61, 74, 62, 48, 62)
('21-03-08 00:43:05.25307', 86, 99, 43, 57, 82, 78, 45, 57)
('21-03-08 00:43:05.27443', 82, 88, 45, 62, 102, 89, 44, 50)
('21-03-08 00:43:05.29400', 77, 83, 45, 70, 106, 98, 42, 52)
('21-03-08 00:43:05.31815', 74, 82, 45, 74, 104, 99, 45, 49)
('21-03-08 00:43:05.33358', 77, 82, 46, 78, 115, 98, 44, 48)
('21-03-08 00:43:05.35421', 62, 63, 46, 76, 119, 87, 46, 48)
('21-03-08 00:43:05.37335', 57, 62, 45, 71, 106, 74, 48, 52)
('21-03-08 00:43:05.39216', 59, 67, 47, 75, 96, 64, 47, 53)
('21-03-08 00:43:05.41452', 65, 63, 50, 76, 110, 89, 46, 51)
('21-03-08 00:43:05.43139', 66, 66, 51, 82, 108, 103, 46, 51)
('21-03-08 00:43:05.45303', 62, 67, 59, 83, 100, 103, 47, 52)
('21-03-08 00:43:05.47428', 60, 69, 58, 87, 104, 100, 48, 53)
('21-03-08 00:43:05.49638', 58, 62, 57, 79, 105, 98, 53, 48)
('21-03-08 00:43:05.51285', 57, 61, 53, 75, 87, 73, 49, 49)
('21-03-08 00:43:05.53649', 50, 50, 52, 62, 75, 53, 48, 46)
('21-03-08 00:43:05.55319', 53, 51, 45, 62, 69, 50, 46, 44)
('21-03-08 00:43:05.57160', 53, 45, 46, 62, 57, 57, 42, 36)
('21-03-08 00:43:05.59512', 52, 48, 46, 54, 60, 56, 34, 38)
('21-03-08 00:43:05.61130', 42, 56, 45, 51, 64, 54, 35, 39)
('21-03-08 00:43:05.63293', 43, 57, 41, 53, 64, 57, 40, 39)
('21-03-08 00:43:05.65428', 42, 58, 40, 55, 69, 54, 39, 47)
('21-03-08 00:43:05.67298', 48, 62, 42, 73, 69, 51, 41, 52)
('21-03-08 00:43:05.69147', 52, 62, 45, 75, 68, 56, 43, 51)
('21-03-08 00:43:05.71505', 54, 59, 45, 76, 68, 55, 46, 54)
('21-03-08 00:43:05.73100', 53, 57, 49, 76, 69, 51, 46, 55)
('21-03-08 00:43:05.75367', 56, 55, 47, 72, 59, 55, 47, 50)
('21-03-08 00:43:05.78258', 51, 51, 44, 187, 64, 52, 48, 47)
('21-03-08 00:43:05.79140', 52, 50, 42, 513, 59, 43, 48, 50)
('21-03-08 00:43:05.81212', 49, 45, 45, 753, 59, 44, 50, 50)
('21-03-08 00:43:05.83713', 51, 47, 41, 842, 57, 40, 47, 51)
('21-03-08 00:43:05.85100', 48, 49, 47, 916, 57, 40, 47, 50)
('21-03-08 00:43:05.87172', 47, 52, 48, 928, 49, 39, 44, 48)
('21-03-08 00:43:05.89418', 44, 48, 48, 821, 55, 40, 46, 47)
('21-03-08 00:43:05.91881', 47, 52, 45, 636, 51, 38, 45, 47)
('21-03-08 00:43:05.93288', 46, 50, 49, 545, 50, 39, 46, 44)
('21-03-08 00:43:05.95603', 46, 47, 45, 439, 57, 36, 48, 48)
('21-03-08 00:43:05.97224', 48, 42, 46, 470, 58, 39, 49, 52)
('21-03-08 00:43:05.99503', 49, 42, 46, 469, 53, 44, 50, 59)
('21-03-08 00:43:06.01548', 47, 40, 47, 485, 52, 48, 48, 56)
('21-03-08 00:43:06.03101', 44, 46, 41, 510, 53, 51, 48, 59)
('21-03-08 00:43:06.05274', 45, 52, 40, 514, 47, 52, 46, 56)
('21-03-08 00:43:06.07443', 44, 54, 42, 558, 45, 52, 44, 51)
('21-03-08 00:43:06.09136', 43, 60, 43, 640, 46, 51, 39, 44)
('21-03-08 00:43:06.12015', 43, 60, 45, 683, 51, 51, 37, 45)
('21-03-08 00:43:06.13611', 44, 58, 45, 680, 55, 49, 37, 41)
('21-03-08 00:43:06.15315', 48, 55, 46, 711, 56, 49, 35, 44)
('21-03-08 00:43:06.17258', 47, 56, 42, 635, 58, 53, 39, 46)
('21-03-08 00:43:06.20313', 47, 49, 41, 534, 55, 50, 39, 42)
('21-03-08 00:43:06.22416', 48, 47, 41, 436, 49, 45, 43, 41)
('21-03-08 00:43:06.24884', 49, 48, 43, 380, 46, 45, 43, 43)
('21-03-08 00:43:06.27690', 41, 46, 42, 273, 48, 42, 44, 47)
('21-03-08 00:43:06.29340', 44, 46, 46, 469, 45, 38, 49, 44)
('21-03-08 00:43:06.30032', 44, 48, 49, 576, 45, 38, 50, 45)
('21-03-08 00:43:06.31404', 40, 47, 52, 690, 50, 40, 48, 49)
('21-03-08 00:43:06.33720', 44, 45, 54, 785, 46, 38, 47, 53)
('21-03-08 00:43:06.35199', 47, 46, 57, 851, 45, 41, 48, 50)
('21-03-08 00:43:06.37402', 46, 45, 55, 768, 49, 46, 44, 53)
('21-03-08 00:43:06.39661', 44, 45, 53, 686, 54, 47, 42, 54)
('21-03-08 00:43:06.41225', 47, 48, 52, 572, 50, 48, 45, 51)
('21-03-08 00:43:06.43572', 41, 45, 48, 433, 53, 49, 44, 47)
('21-03-08 00:43:06.45666', 39, 55, 44, 288, 53, 51, 41, 48)
('21-03-08 00:43:06.47258', 43, 53, 43, 218, 50, 46, 38, 47)
('21-03-08 00:43:06.49442', 44, 57, 46, 185, 43, 41, 37, 45)
('21-03-08 00:43:06.51714', 46, 56, 50, 149, 49, 41, 34, 46)
('21-03-08 00:43:06.53194', 49, 59, 51, 121, 53, 49, 35, 46)
('21-03-08 00:43:06.55597', 54, 55, 56, 87, 53, 49, 36, 45)
('21-03-08 00:43:06.57702', 52, 60, 58, 76, 55, 54, 41, 45)
('21-03-08 00:43:06.59312', 55, 56, 54, 72, 60, 55, 41, 46)
('21-03-08 00:43:06.62650', 53, 58, 50, 65, 59, 57, 44, 53)
('21-03-08 00:43:06.63661', 54, 61, 51, 56, 60, 53, 44, 52)
('21-03-08 00:43:06.65542', 52, 54, 45, 51, 59, 52, 43, 49)
('21-03-08 00:43:06.67420', 50, 54, 43, 46, 62, 48, 39, 48)
('21-03-08 00:43:06.70591', 48, 53, 43, 51, 67, 49, 42, 50)
('21-03-08 00:43:06.71367', 48, 54, 42, 58, 66, 81, 40, 40)
('21-03-08 00:43:06.73584', 49, 57, 49, 69, 69, 90, 41, 41)
('21-03-08 00:43:06.75716', 54, 65, 48, 73, 88, 104, 41, 47)
('21-03-08 00:43:06.77452', 54, 64, 50, 79, 85, 107, 41, 45)
('21-03-08 00:43:06.79520', 52, 67, 54, 77, 80, 113, 45, 41)
('21-03-08 00:43:06.82051', 55, 66, 53, 69, 82, 98, 46, 42)
('21-03-08 00:43:06.83381', 50, 59, 46, 63, 86, 89, 45, 42)
('21-03-08 00:43:06.85665', 45, 55, 51, 64, 71, 75, 46, 34)
('21-03-08 00:43:06.87677', 47, 53, 49, 55, 74, 83, 46, 35)
('21-03-08 00:43:06.89379', 48, 51, 47, 56, 80, 79, 40, 40)
('21-03-08 00:43:06.91400', 47, 52, 49, 57, 84, 75, 42, 39)
('21-03-08 00:43:06.93737', 55, 98, 48, 54, 76, 75, 42, 41)
('21-03-08 00:43:06.95377', 59, 99, 47, 48, 96, 74, 42, 44)
('21-03-08 00:43:06.97409', 59, 100, 49, 42, 96, 58, 42, 47)
('21-03-08 00:43:06.99666', 59, 102, 50, 44, 89, 51, 41, 44)
('21-03-08 00:43:07.01386', 60, 101, 50, 43, 85, 47, 37, 47)
('21-03-08 00:43:07.03587', 55, 62, 54, 49, 91, 47, 38, 48)
('21-03-08 00:43:07.05711', 49, 58, 55, 52, 68, 46, 39, 44)
('21-03-08 00:43:07.07527', 47, 55, 52, 54, 69, 53, 42, 50)
('21-03-08 00:43:07.09567', 47, 54, 55, 53, 72, 53, 42, 54)
('21-03-08 00:43:07.11693', 43, 58, 57, 55, 70, 49, 46, 53)
('21-03-08 00:43:07.13427', 37, 58, 53, 54, 62, 48, 47, 53)
('21-03-08 00:43:07.15401', 37, 64, 48, 50, 61, 52, 47, 54)
('21-03-08 00:43:07.18028', 34, 70, 48, 49, 56, 46, 47, 47)
('21-03-08 00:43:07.19355', 37, 65, 44, 47, 55, 46, 49, 41)
('21-03-08 00:43:07.22172', 42, 62, 40, 46, 56, 48, 43, 42)
('21-03-08 00:43:07.24507', 43, 57, 43, 44, 56, 51, 43, 43)
('21-03-08 00:43:07.25557', 43, 49, 45, 45, 63, 51, 41, 44)
('21-03-08 00:43:07.27406', 45, 53, 48, 50, 69, 52, 40, 47)
('21-03-08 00:43:07.29647', 49, 60, 48, 51, 73, 57, 42, 48)
('21-03-08 00:43:07.32005', 48, 61, 49, 48, 74, 56, 45, 45)
('21-03-08 00:43:07.33552', 50, 62, 47, 46, 73, 55, 43, 39)
('21-03-08 00:43:07.35653', 51, 61, 48, 44, 65, 48, 44, 39)
('21-03-08 00:43:07.37944', 53, 57, 45, 42, 63, 50, 41, 38)
('21-03-08 00:43:07.39450', 46, 52, 43, 43, 62, 49, 40, 38)
('21-03-08 00:43:07.41733', 43, 56, 44, 49, 62, 48, 44, 41)
('21-03-08 00:43:07.43899', 47, 58, 42, 49, 64, 44, 44, 45)
('21-03-08 00:43:07.45501', 50, 60, 41, 51, 63, 44, 43, 50)
('21-03-08 00:43:07.47680', 48, 58, 42, 55, 63, 40, 44, 47)
('21-03-08 00:43:07.49918', 51, 55, 41, 54, 62, 40, 42, 47)
('21-03-08 00:43:07.51445', 49, 49, 40, 54, 64, 40, 40, 47)
('21-03-08 00:43:07.53956', 42, 47, 45, 55, 65, 41, 36, 47)
('21-03-08 00:43:07.55944', 38, 48, 52, 55, 72, 43, 38, 44)
('21-03-08 00:43:07.57512', 38, 43, 52, 50, 68, 42, 41, 45)
('21-03-08 00:43:07.59755', 30, 45, 54, 47, 67, 41, 41, 45)
('21-03-08 00:43:07.61939', 35, 46, 52, 42, 69, 46, 41, 43)
('21-03-08 00:43:07.63466', 39, 46, 48, 39, 65, 47, 44, 44)
('21-03-08 00:43:07.65660', 38, 40, 42, 44, 71, 48, 45, 43)
('21-03-08 00:43:07.67935', 42, 45, 48, 44, 70, 49, 43, 44)
('21-03-08 00:43:07.69454', 43, 42, 47, 44, 70, 53, 43, 48)
('21-03-08 00:43:07.71782', 39, 47, 47, 44, 65, 55, 42, 47)
('21-03-08 00:43:07.73945', 37, 50, 48, 48, 73, 59, 46, 52)
('21-03-08 00:43:07.75428', 40, 52, 44, 39, 64, 57, 45, 49)
('21-03-08 00:43:07.77693', 38, 49, 42, 43, 67, 57, 47, 53)
('21-03-08 00:43:07.80759', 41, 49, 41, 45, 67, 48, 48, 51)
('21-03-08 00:43:07.81758', 41, 46, 44, 43, 68, 44, 47, 53)
('21-03-08 00:43:07.83742', 43, 43, 47, 42, 63, 36, 42, 47)
('21-03-08 00:43:07.85938', 41, 44, 50, 48, 71, 47, 46, 49)
('21-03-08 00:43:07.87425', 39, 44, 44, 45, 72, 51, 50, 47)
('21-03-08 00:43:07.89653', 40, 44, 47, 46, 71, 54, 55, 46)
('21-03-08 00:43:07.92052', 38, 44, 44, 45, 67, 54, 57, 44)
('21-03-08 00:43:07.93472', 38, 46, 45, 46, 68, 57, 58, 47)
('21-03-08 00:43:07.95646', 41, 49, 41, 42, 62, 49, 54, 49)
('21-03-08 00:43:07.97895', 42, 51, 46, 43, 63, 46, 49, 47)
('21-03-08 00:43:07.99417', 42, 55, 46, 41, 72, 44, 41, 46)
('21-03-08 00:43:08.01783', 45, 55, 44, 44, 77, 46, 40, 51)
('21-03-08 00:43:08.03994', 47, 56, 43, 44, 74, 46, 39, 48)
('21-03-08 00:43:08.05633', 46, 53, 47, 42, 77, 45, 38, 48)
('21-03-08 00:43:08.07686', 45, 50, 44, 44, 73, 46, 38, 50)
('21-03-08 00:43:08.10026', 43, 46, 42, 45, 70, 47, 40, 52)
('21-03-08 00:43:08.11447', 41, 42, 46, 45, 81, 43, 37, 47)
('21-03-08 00:43:08.13905', 39, 40, 47, 42, 83, 44, 36, 47)
('21-03-08 00:43:08.15984', 40, 38, 44, 45, 77, 48, 37, 44)
('21-03-08 00:43:08.17978', 40, 39, 42, 41, 76, 52, 39, 39)
('21-03-08 00:43:08.19686', 40, 94, 45, 40, 71, 64, 37, 47)
('21-03-08 00:43:08.21910', 72, 102, 42, 38, 56, 64, 39, 49)
('21-03-08 00:43:08.24203', 79, 120, 40, 38, 53, 62, 41, 49)
('21-03-08 00:43:08.25654', 78, 125, 52, 37, 56, 65, 44, 50)
('21-03-08 00:43:08.28177', 78, 127, 56, 40, 58, 73, 42, 50)
('21-03-08 00:43:08.30310', 79, 96, 57, 48, 58, 74, 43, 48)
('21-03-08 00:43:08.31692', 52, 88, 57, 51, 54, 77, 45, 48)
('21-03-08 00:43:08.34060', 40, 62, 57, 56, 60, 77, 47, 47)
('21-03-08 00:43:08.36207', 44, 54, 47, 54, 63, 77, 45, 45)
('21-03-08 00:43:08.37821', 45, 48, 46, 51, 63, 65, 46, 46)
('21-03-08 00:43:08.40824', 43, 46, 47, 47, 65, 53, 48, 42)
('21-03-08 00:43:08.42157', 43, 51, 46, 46, 73, 49, 44, 40)
('21-03-08 00:43:08.44407', 48, 58, 46, 45, 69, 50, 42, 42)
('21-03-08 00:43:08.45899', 50, 57, 50, 46, 65, 44, 41, 45)
('21-03-08 00:43:08.48185', 52, 60, 50, 49, 66, 49, 40, 49)
('21-03-08 00:43:08.49644', 55, 62, 46, 47, 69, 48, 37, 48)
('21-03-08 00:43:08.52048', 56, 58, 50, 49, 72, 52, 41, 50)
('21-03-08 00:43:08.54206', 53, 53, 50, 47, 72, 50, 40, 50)
('21-03-08 00:43:08.56510', 52, 54, 47, 48, 76, 52, 41, 48)
('21-03-08 00:43:08.57926', 58, 54, 47, 51, 75, 49, 43, 43)
('21-03-08 00:43:08.60284', 59, 68, 46, 51, 74, 56, 48, 47)
('21-03-08 00:43:08.61671', 59, 70, 44, 58, 64, 67, 48, 45)
('21-03-08 00:43:08.64093', 57, 76, 44, 58, 74, 69, 47, 44)
('21-03-08 00:43:08.66182', 60, 83, 40, 57, 72, 71, 44, 45)
('21-03-08 00:43:08.67698', 55, 81, 41, 51, 71, 71, 46, 48)
('21-03-08 00:43:08.69916', 51, 73, 44, 49, 66, 68, 42, 43)
('21-03-08 00:43:08.72263', 53, 71, 44, 41, 66, 53, 41, 45)
('21-03-08 00:43:08.73997', 63, 71, 46, 38, 54, 51, 45, 44)
('21-03-08 00:43:08.75931', 65, 74, 47, 46, 55, 47, 47, 45)
('21-03-08 00:43:08.78151', 66, 75, 52, 48, 55, 47, 44, 40)
('21-03-08 00:43:08.79747', 83, 70, 47, 49, 57, 40, 44, 40)
('21-03-08 00:43:08.82120', 84, 72, 50, 46, 64, 41, 44, 40)
('21-03-08 00:43:08.84294', 80, 70, 48, 61, 64, 43, 45, 39)
('21-03-08 00:43:08.85695', 75, 58, 55, 58, 59, 46, 42, 39)
('21-03-08 00:43:08.87948', 71, 55, 53, 58, 60, 44, 44, 42)
('21-03-08 00:43:08.90256', 50, 56, 59, 86, 70, 49, 47, 41)
('21-03-08 00:43:08.91690', 47, 51, 54, 87, 65, 52, 46, 37)
('21-03-08 00:43:08.93962', 42, 45, 52, 81, 64, 49, 44, 41)
('21-03-08 00:43:08.96189', 41, 48, 45, 82, 71, 55, 48, 47)
('21-03-08 00:43:08.97684', 42, 47, 43, 85, 74, 55, 48, 45)
('21-03-08 00:43:08.99909', 43, 48, 41, 57, 66, 52, 47, 47)
('21-03-08 00:43:09.02178', 105, 93, 52, 61, 70, 47, 50, 48)
('21-03-08 00:43:09.03848', 108, 94, 55, 59, 71, 48, 49, 47)
('21-03-08 00:43:09.06099', 113, 95, 57, 62, 66, 39, 52, 38)
('21-03-08 00:43:09.08196', 115, 96, 60, 56, 66, 44, 51, 40)
('21-03-08 00:43:09.09783', 114, 94, 61, 57, 68, 47, 49, 40)
('21-03-08 00:43:09.12073', 64, 52, 58, 50, 66, 52, 45, 38)
('21-03-08 00:43:09.14227', 59, 46, 56, 49, 65, 52, 44, 39)
('21-03-08 00:43:09.16561', 49, 42, 55, 42, 64, 54, 41, 38)
('21-03-08 00:43:09.17913', 45, 43, 49, 41, 62, 49, 44, 37)
('21-03-08 00:43:09.20297', 42, 43, 46, 44, 56, 46, 45, 41)
('21-03-08 00:43:09.22527', 42, 43, 43, 43, 57, 45, 46, 42)
('21-03-08 00:43:09.23977', 47, 44, 45, 40, 55, 50, 46, 41)
('21-03-08 00:43:09.26170', 45, 43, 45, 38, 62, 48, 42, 47)
('21-03-08 00:43:09.28651', 43, 43, 50, 42, 65, 49, 40, 49)
('21-03-08 00:43:09.29995', 45, 44, 48, 41, 68, 49, 39, 50)
('21-03-08 00:43:09.32278', 39, 48, 46, 56, 70, 49, 38, 50)
('21-03-08 00:43:09.35314', 43, 53, 43, 64, 75, 45, 38, 52)
('21-03-08 00:43:09.35918', 48, 56, 42, 66, 69, 46, 36, 50)
('21-03-08 00:43:09.38189', 49, 58, 33, 66, 63, 49, 36, 46)
('21-03-08 00:43:09.40422', 48, 62, 34, 66, 63, 56, 38, 42)
('21-03-08 00:43:09.42117', 51, 63, 35, 58, 60, 52, 44, 41)
('21-03-08 00:43:09.44243', 45, 57, 36, 52, 62, 56, 43, 41)
('21-03-08 00:43:09.47227', 43, 63, 37, 65, 67, 60, 44, 43)
('21-03-08 00:43:09.47967', 46, 68, 48, 73, 69, 63, 44, 45)
('21-03-08 00:43:09.50230', 61, 103, 47, 72, 73, 64, 45, 50)
('21-03-08 00:43:09.52417', 85, 150, 51, 71, 72, 70, 42, 51)
('21-03-08 00:43:09.53902', 86, 162, 54, 73, 87, 70, 48, 48)
('21-03-08 00:43:09.57198', 87, 162, 55, 60, 87, 65, 51, 44)
('21-03-08 00:43:09.58538', 91, 166, 48, 49, 90, 60, 52, 43)
('21-03-08 00:43:09.60006', 82, 146, 46, 48, 91, 52, 48, 38)
('21-03-08 00:43:09.62174', 55, 97, 43, 49, 90, 50, 48, 41)
('21-03-08 00:43:09.64452', 84, 91, 40, 43, 77, 48, 45, 63)
('21-03-08 00:43:09.65945', 200, 202, 40, 49, 80, 53, 48, 104)
('21-03-08 00:43:09.68190', 223, 266, 47, 54, 114, 53, 47, 112)
('21-03-08 00:43:09.70430', 227, 288, 50, 53, 123, 55, 49, 114)
('21-03-08 00:43:09.72292', 231, 294, 49, 53, 123, 57, 50, 114)
('21-03-08 00:43:09.74345', 225, 290, 51, 63, 128, 59, 51, 107)
('21-03-08 00:43:09.76448', 149, 231, 49, 58, 127, 64, 44, 71)
('21-03-08 00:43:09.77903', 124, 149, 48, 67, 108, 64, 47, 59)
('21-03-08 00:43:09.80306', 126, 110, 53, 70, 96, 66, 51, 62)
('21-03-08 00:43:09.82403', 125, 99, 55, 70, 98, 66, 48, 60)
('21-03-08 00:43:09.83949', 121, 103, 54, 64, 86, 63, 47, 53)
('21-03-08 00:43:09.86162', 100, 86, 55, 64, 81, 57, 49, 51)
('21-03-08 00:43:09.88603', 84, 82, 51, 56, 68, 56, 45, 49)
('21-03-08 00:43:09.90658', 67, 68, 51, 53, 72, 54, 40, 39)
('21-03-08 00:43:09.92265', 68, 57, 50, 51, 69, 64, 40, 36)
('21-03-08 00:43:09.94427', 65, 47, 53, 51, 80, 68, 42, 36)
('21-03-08 00:43:09.95984', 62, 54, 51, 50, 85, 69, 42, 34)
('21-03-08 00:43:09.98167', 60, 52, 51, 42, 87, 69, 42, 42)
('21-03-08 00:43:10.00712', 60, 53, 45, 42, 82, 67, 41, 42)
('21-03-08 00:43:10.01969', 49, 55, 44, 43, 81, 59, 42, 46)
('21-03-08 00:43:10.04236', 49, 58, 38, 44, 70, 54, 40, 47)
('21-03-08 00:43:10.06408', 51, 54, 39, 51, 64, 54, 40, 47)
('21-03-08 00:43:10.07909', 53, 55, 35, 50, 54, 54, 40, 39)
('21-03-08 00:43:10.11007', 49, 58, 36, 49, 56, 52, 40, 45)
('21-03-08 00:43:10.12505', 44, 54, 35, 48, 57, 46, 40, 41)
('21-03-08 00:43:10.14838', 41, 52, 37, 48, 56, 43, 39, 42)
('21-03-08 00:43:10.16194', 41, 50, 35, 40, 54, 41, 34, 42)
('21-03-08 00:43:10.18667', 42, 52, 35, 39, 58, 42, 35, 44)
('21-03-08 00:43:10.20771', 46, 49, 38, 42, 57, 43, 38, 43)
('21-03-08 00:43:10.22994', 47, 49, 44, 42, 59, 45, 40, 44)
('21-03-08 00:43:10.24427', 46, 56, 42, 44, 69, 49, 47, 41)
('21-03-08 00:43:10.26748', 46, 58, 48, 45, 67, 46, 47, 41)
('21-03-08 00:43:10.28183', 46, 57, 53, 46, 72, 48, 48, 45)
('21-03-08 00:43:10.30604', 47, 61, 50, 46, 72, 49, 45, 45)
('21-03-08 00:43:10.32703', 49, 64, 48, 47, 69, 48, 45, 54)
('21-03-08 00:43:10.34187', 48, 56, 49, 45, 73, 53, 42, 58)
('21-03-08 00:43:10.36424', 49, 55, 47, 47, 87, 58, 43, 61)
('21-03-08 00:43:10.38700', 47, 57, 45, 47, 91, 59, 42, 59)
('21-03-08 00:43:10.40333', 44, 51, 43, 48, 90, 61, 45, 59)
('21-03-08 00:43:10.42499', 43, 48, 44, 49, 95, 60, 45, 52)
('21-03-08 00:43:10.44698', 47, 49, 46, 47, 86, 54, 43, 51)
('21-03-08 00:43:10.46202', 45, 54, 42, 45, 76, 55, 44, 48)
('21-03-08 00:43:10.48535', 45, 52, 43, 45, 75, 50, 49, 48)
('21-03-08 00:43:10.50935', 55, 59, 48, 42, 74, 46, 49, 42)
('21-03-08 00:43:10.52373', 54, 68, 47, 44, 65, 49, 49, 39)
('21-03-08 00:43:10.54483', 53, 71, 48, 51, 72, 54, 51, 35)
('21-03-08 00:43:10.56657', 55, 68, 51, 55, 72, 47, 53, 42)
('21-03-08 00:43:10.58157', 56, 66, 49, 56, 59, 49, 52, 44)
('21-03-08 00:43:10.60399', 48, 59, 45, 57, 61, 50, 51, 48)
('21-03-08 00:43:10.62677', 49, 50, 44, 57, 65, 48, 55, 49)
('21-03-08 00:43:10.64249', 47, 44, 46, 53, 66, 48, 52, 50)
('21-03-08 00:43:10.66433', 50, 47, 49, 50, 63, 53, 48, 43)
('21-03-08 00:43:10.68692', 52, 48, 49, 52, 71, 54, 44, 43)
('21-03-08 00:43:10.70324', 61, 60, 51, 49, 69, 55, 46, 39)
('21-03-08 00:43:10.72468', 59, 64, 52, 47, 66, 53, 45, 40)
('21-03-08 00:43:10.74677', 77, 75, 51, 63, 73, 52, 50, 47)
('21-03-08 00:43:10.76151', 88, 73, 46, 66, 95, 67, 52, 48)
('21-03-08 00:43:10.78602', 95, 77, 48, 65, 102, 68, 53, 47)
('21-03-08 00:43:10.80767', 93, 72, 51, 67, 107, 67, 53, 50)
('21-03-08 00:43:10.82326', 95, 79, 49, 69, 112, 69, 53, 50)
('21-03-08 00:43:10.84398', 89, 75, 47, 56, 103, 68, 56, 46)
('21-03-08 00:43:10.86860', 76, 77, 47, 51, 80, 52, 53, 49)
('21-03-08 00:43:10.88267', 67, 74, 49, 51, 71, 50, 54, 46)
('21-03-08 00:43:10.90503', 70, 87, 44, 54, 67, 52, 52, 46)
('21-03-08 00:43:10.92706', 87, 86, 44, 59, 76, 63, 51, 45)
('21-03-08 00:43:10.94212', 84, 82, 43, 62, 85, 60, 46, 45)
('21-03-08 00:43:10.96511', 84, 84, 44, 64, 91, 62, 47, 42)
('21-03-08 00:43:10.98774', 92, 83, 43, 67, 92, 65, 45, 44)
('21-03-08 00:43:11.00285', 87, 69, 41, 63, 92, 63, 45, 43)
('21-03-08 00:43:11.02407', 70, 60, 43, 60, 86, 51, 42, 43)
('21-03-08 00:43:11.04764', 70, 57, 45, 58, 82, 54, 40, 43)
('21-03-08 00:43:11.06963', 69, 52, 46, 53, 83, 55, 42, 43)
('21-03-08 00:43:11.08469', 65, 55, 45, 51, 86, 58, 46, 42)
('21-03-08 00:43:11.10706', 69, 56, 46, 49, 83, 60, 44, 48)
('21-03-08 00:43:11.12925', 65, 60, 52, 48, 79, 61, 47, 48)
('21-03-08 00:43:11.14440', 64, 69, 54, 44, 72, 64, 48, 45)
('21-03-08 00:43:11.16679', 62, 67, 52, 47, 71, 60, 46, 46)
('21-03-08 00:43:11.18920', 51, 65, 54, 52, 62, 54, 44, 50)
('21-03-08 00:43:11.20563', 45, 59, 52, 56, 68, 54, 46, 45)
('21-03-08 00:43:11.22703', 43, 59, 52, 63, 96, 51, 42, 46)
('21-03-08 00:43:11.24948', 40, 61, 54, 71, 118, 60, 43, 46)
('21-03-08 00:43:11.26425', 120, 96, 58, 123, 148, 97, 43, 45)
('21-03-08 00:43:11.29018', 247, 187, 68, 147, 202, 130, 42, 42)
('21-03-08 00:43:11.30927', 262, 200, 76, 173, 209, 141, 42, 46)
('21-03-08 00:43:11.32406', 267, 204, 74, 176, 217, 144, 44, 48)
('21-03-08 00:43:11.34683', 270, 203, 74, 176, 212, 142, 40, 49)
('21-03-08 00:43:11.36923', 247, 190, 76, 149, 200, 123, 41, 49)
('21-03-08 00:43:11.38720', 127, 101, 67, 122, 153, 92, 41, 49)
('21-03-08 00:43:11.40699', 96, 78, 63, 91, 157, 79, 46, 48)
('21-03-08 00:43:11.42912', 84, 60, 60, 86, 139, 76, 44, 45)
('21-03-08 00:43:11.44426', 73, 56, 60, 85, 139, 68, 48, 43)
('21-03-08 00:43:11.46660', 77, 55, 53, 88, 143, 67, 48, 43)
('21-03-08 00:43:11.49084', 71, 51, 51, 88, 140, 63, 48, 45)
('21-03-08 00:43:11.50486', 68, 53, 47, 85, 141, 69, 46, 43)
('21-03-08 00:43:11.52705', 66, 54, 47, 86, 137, 75, 45, 42)
('21-03-08 00:43:11.54919', 72, 53, 43, 86, 135, 82, 44, 43)
('21-03-08 00:43:11.56444', 64, 62, 49, 86, 136, 86, 41, 46)
('21-03-08 00:43:11.58982', 59, 66, 53, 88, 131, 90, 40, 47)
('21-03-08 00:43:11.61771', 57, 60, 59, 82, 118, 86, 37, 47)
('21-03-08 00:43:11.62424', 55, 67, 60, 73, 119, 88, 41, 46)
('21-03-08 00:43:11.64658', 49, 66, 62, 75, 125, 83, 39, 46)
('21-03-08 00:43:11.67006', 45, 58, 62, 66, 110, 80, 38, 43)
('21-03-08 00:43:11.68471', 85, 135, 69, 86, 158, 77, 38, 40)
('21-03-08 00:43:11.70797', 107, 152, 70, 95, 172, 93, 38, 42)
('21-03-08 00:43:11.72939', 108, 155, 71, 98, 171, 88, 38, 42)
('21-03-08 00:43:11.74441', 115, 157, 68, 99, 163, 87, 39, 41)
('21-03-08 00:43:11.77553', 118, 159, 65, 96, 162, 88, 42, 41)
('21-03-08 00:43:11.79057', 95, 100, 54, 79, 113, 87, 43, 37)
('21-03-08 00:43:11.80509', 69, 76, 46, 67, 82, 67, 46, 33)
('21-03-08 00:43:11.82658', 65, 62, 45, 63, 68, 62, 42, 33)
('21-03-08 00:43:11.85019', 55, 59, 44, 58, 68, 64, 43, 35)
('21-03-08 00:43:11.86405', 51, 56, 43, 58, 64, 59, 43, 35)
('21-03-08 00:43:11.88794', 48, 56, 49, 95, 94, 58, 42, 37)
('21-03-08 00:43:11.90920', 57, 54, 50, 113, 127, 57, 43, 38)
('21-03-08 00:43:11.92419', 67, 63, 53, 124, 136, 66, 44, 39)
('21-03-08 00:43:11.94661', 67, 63, 52, 127, 145, 61, 43, 43)
('21-03-08 00:43:11.97007', 69, 67, 55, 135, 149, 62, 41, 44)
('21-03-08 00:43:11.98514', 67, 64, 49, 114, 133, 56, 45, 45)
('21-03-08 00:43:12.00710', 58, 63, 47, 95, 108, 52, 42, 57)
('21-03-08 00:43:12.02921', 48, 58, 39, 82, 99, 41, 44, 57)
('21-03-08 00:43:12.05349', 42, 61, 43, 86, 100, 41, 44, 54)
('21-03-08 00:43:12.06799', 35, 53, 49, 78, 98, 42, 50, 52)
('21-03-08 00:43:12.09022', 33, 53, 51, 72, 98, 45, 44, 51)
('21-03-08 00:43:12.11182', 39, 56, 55, 74, 91, 44, 47, 39)
('21-03-08 00:43:12.12849', 40, 49, 57, 75, 94, 46, 50, 42)
('21-03-08 00:43:12.14897', 43, 39, 53, 61, 82, 48, 49, 43)
('21-03-08 00:43:12.17394', 45, 43, 49, 54, 78, 50, 44, 45)
('21-03-08 00:43:12.18850', 45, 47, 47, 53, 75, 51, 50, 46)
('21-03-08 00:43:12.20910', 40, 44, 46, 49, 78, 56, 48, 46)
('21-03-08 00:43:12.23267', 41, 46, 45, 39, 67, 53, 46, 45)
('21-03-08 00:43:12.24744', 39, 50, 47, 40, 61, 52, 46, 42)
('21-03-08 00:43:12.26999', 36, 53, 41, 40, 59, 46, 45, 41)
('21-03-08 00:43:12.29156', 37, 52, 42, 39, 64, 47, 45, 39)
('21-03-08 00:43:12.30791', 37, 56, 37, 38, 60, 48, 46, 39)
('21-03-08 00:43:12.32995', 36, 58, 36, 50, 68, 51, 45, 39)
('21-03-08 00:43:12.35228', 38, 56, 36, 52, 68, 53, 46, 42)
('21-03-08 00:43:12.36706', 41, 49, 42, 54, 69, 54, 48, 44)
('21-03-08 00:43:12.39056', 43, 51, 41, 55, 67, 52, 42, 44)
('21-03-08 00:43:12.41186', 43, 50, 43, 56, 66, 47, 42, 45)
('21-03-08 00:43:12.42751', 39, 49, 47, 52, 75, 43, 41, 45)
('21-03-08 00:43:12.44942', 37, 48, 46, 53, 79, 45, 44, 44)
('21-03-08 00:43:12.47216', 37, 50, 40, 53, 78, 47, 45, 44)
('21-03-08 00:43:12.49534', 41, 50, 40, 58, 85, 51, 47, 45)
('21-03-08 00:43:12.51146', 45, 54, 43, 61, 89, 54, 44, 46)
('21-03-08 00:43:12.53223', 49, 54, 46, 60, 84, 57, 44, 46)
('21-03-08 00:43:12.54713', 50, 59, 48, 59, 86, 59, 41, 46)
('21-03-08 00:43:12.57020', 48, 60, 50, 59, 90, 59, 39, 48)
('21-03-08 00:43:12.59180', 44, 57, 52, 54, 84, 57, 36, 46)
('21-03-08 00:43:12.60795', 45, 53, 50, 55, 82, 57, 38, 43)
('21-03-08 00:43:12.62947', 43, 51, 46, 49, 72, 56, 38, 44)
('21-03-08 00:43:12.65161', 45, 56, 45, 49, 72, 55, 40, 49)
('21-03-08 00:43:12.66684', 50, 67, 44, 57, 73, 60, 50, 58)
('21-03-08 00:43:12.69010', 53, 105, 44, 89, 214, 151, 63, 63)
('21-03-08 00:43:12.71301', 56, 106, 42, 101, 248, 161, 68, 66)
('21-03-08 00:43:12.72728', 64, 114, 39, 111, 254, 177, 72, 67)
('21-03-08 00:43:12.75115', 67, 113, 38, 127, 265, 186, 72, 64)
('21-03-08 00:43:12.77283', 67, 107, 36, 125, 267, 191, 66, 53)
('21-03-08 00:43:12.78810', 67, 74, 35, 108, 183, 133, 54, 47)
('21-03-08 00:43:12.80958', 62, 69, 38, 95, 140, 121, 46, 45)
('21-03-08 00:43:12.83178', 57, 59, 43, 87, 140, 97, 42, 42)
('21-03-08 00:43:12.84693', 53, 51, 46, 71, 121, 77, 40, 43)
('21-03-08 00:43:12.87054', 50, 51, 51, 68, 110, 61, 39, 43)
('21-03-08 00:43:12.89175', 47, 47, 54, 68, 95, 58, 42, 45)
('21-03-08 00:43:12.90699', 48, 50, 55, 73, 96, 57, 45, 42)
('21-03-08 00:43:12.92946', 43, 48, 54, 80, 97, 52, 45, 40)
('21-03-08 00:43:12.95348', 45, 48, 51, 71, 90, 52, 45, 46)
('21-03-08 00:43:12.97541', 45, 46, 47, 71, 95, 52, 47, 45)
('21-03-08 00:43:12.99128', 41, 48, 47, 64, 98, 52, 45, 45)
('21-03-08 00:43:13.01184', 42, 47, 46, 57, 87, 55, 43, 47)
('21-03-08 00:43:13.03545', 42, 46, 43, 40, 70, 54, 45, 46)
('21-03-08 00:43:13.05006', 40, 46, 46, 42, 68, 54, 44, 42)
('21-03-08 00:43:13.07708', 41, 47, 47, 49, 62, 47, 44, 44)
('21-03-08 00:43:13.09438', 45, 47, 42, 50, 63, 43, 42, 45)
('21-03-08 00:43:13.11018', 49, 49, 42, 53, 62, 38, 42, 45)
('21-03-08 00:43:13.13178', 53, 46, 42, 56, 63, 42, 35, 46)
('21-03-08 00:43:13.15441', 54, 49, 41, 59, 62, 40, 39, 44)
('21-03-08 00:43:13.16918', 53, 53, 40, 53, 69, 50, 38, 43)
('21-03-08 00:43:13.19247', 54, 53, 48, 60, 67, 51, 38, 48)
('21-03-08 00:43:13.21509', 51, 49, 52, 60, 69, 51, 38, 57)
('21-03-08 00:43:13.22944', 52, 61, 62, 68, 71, 72, 42, 57)
('21-03-08 00:43:13.25331', 52, 68, 63, 109, 82, 83, 41, 58)
('21-03-08 00:43:13.28356', 55, 67, 76, 576, 81, 84, 39, 56)
('21-03-08 00:43:13.29031', 53, 67, 79, 815, 79, 87, 45, 51)
('21-03-08 00:43:13.31323', 51, 70, 74, 935, 79, 86, 50, 39)
('21-03-08 00:43:13.33545', 49, 65, 74, 1017, 73, 71, 54, 43)
('21-03-08 00:43:13.35025', 44, 57, 74, 1048, 61, 59, 53, 43)
('21-03-08 00:43:13.37191', 42, 59, 62, 908, 57, 55, 52, 43)
('21-03-08 00:43:13.39431', 46, 65, 53, 728, 62, 53, 49, 44)
('21-03-08 00:43:13.40977', 45, 61, 54, 651, 67, 62, 44, 41)
('21-03-08 00:43:13.43284', 44, 59, 47, 664, 72, 59, 43, 37)
('21-03-08 00:43:13.45547', 46, 57, 47, 702, 83, 60, 45, 34)
('21-03-08 00:43:13.47016', 49, 59, 49, 757, 87, 60, 45, 34)
('21-03-08 00:43:13.49231', 43, 51, 53, 774, 93, 59, 44, 35)
('21-03-08 00:43:13.51479', 46, 60, 140, 724, 97, 52, 44, 35)
('21-03-08 00:43:13.52974', 50, 63, 568, 605, 106, 54, 41, 40)
('21-03-08 00:43:13.55326', 49, 64, 634, 507, 108, 54, 40, 41)
('21-03-08 00:43:13.57412', 46, 59, 724, 369, 119, 50, 41, 42)
('21-03-08 00:43:13.59842', 47, 61, 847, 348, 118, 49, 44, 43)
('21-03-08 00:43:13.61166', 47, 59, 1085, 659, 128, 49, 49, 45)
('21-03-08 00:43:13.63415', 43, 56, 1269, 1098, 122, 48, 45, 43)
('21-03-08 00:43:13.64911', 43, 56, 1403, 1213, 114, 52, 47, 44)
('21-03-08 00:43:13.67191', 40, 57, 1479, 1378, 101, 54, 47, 42)
('21-03-08 00:43:13.69446', 41, 59, 1496, 1402, 93, 54, 45, 438)
('21-03-08 00:43:13.71017', 37, 55, 1341, 1488, 238, 218, 108, 881)
('21-03-08 00:43:13.73297', 37, 55, 1037, 1248, 265, 244, 117, 1097)
('21-03-08 00:43:13.75539', 37, 57, 801, 1183, 284, 269, 130, 1147)
('21-03-08 00:43:13.77069', 40, 59, 550, 1073, 296, 283, 139, 1185)
('21-03-08 00:43:13.79282', 39, 54, 244, 1177, 300, 289, 142, 1217)
('21-03-08 00:43:13.81556', 39, 55, 138, 1000, 212, 213, 106, 987)
('21-03-08 00:43:13.82926', 38, 58, 90, 1093, 199, 196, 101, 771)
('21-03-08 00:43:13.85339', 39, 58, 62, 1123, 179, 167, 88, 918)
('21-03-08 00:43:13.88368', 39, 56, 41, 1315, 160, 144, 70, 1167)
('21-03-08 00:43:13.89770', 40, 58, 29, 1364, 156, 135, 67, 1186)
('21-03-08 00:43:13.91173', 41, 54, 102, 1375, 145, 110, 85, 1265)
('21-03-08 00:43:13.93535', 46, 51, 505, 1503, 121, 104, 83, 1298)
('21-03-08 00:43:13.95859', 55, 67, 683, 1628, 131, 94, 81, 1185)
('21-03-08 00:43:13.97177', 59, 74, 1013, 1474, 142, 92, 86, 934)
('21-03-08 00:43:13.99448', 64, 75, 1138, 1415, 146, 92, 86, 789)
('21-03-08 00:43:14.00940', 69, 79, 1255, 1462, 129, 88, 62, 912)
('21-03-08 00:43:14.03175', 72, 80, 1292, 1322, 127, 67, 62, 1061)
('21-03-08 00:43:14.04684', 690, 73, 1443, 1397, 105, 66, 58, 1262)
('21-03-08 00:43:14.07288', 870, 76, 1439, 1504, 94, 69, 58, 1305)
('21-03-08 00:43:14.09185', 993, 77, 1397, 1533, 86, 62, 73, 1451)
('21-03-08 00:43:14.10790', 1012, 76, 1300, 1416, 93, 70, 680, 1448)
('21-03-08 00:43:14.12941', 1033, 78, 1164, 1336, 87, 71, 852, 1558)
('21-03-08 00:43:14.16010', 890, 80, 955, 1044, 79, 69, 956, 1500)
('21-03-08 00:43:14.16664', 792, 79, 953, 822, 67, 68, 1129, 1464)
('21-03-08 00:43:14.18923', 720, 86, 917, 563, 62, 69, 1393, 1332)
('21-03-08 00:43:14.21150', 866, 91, 1050, 627, 58, 63, 1339, 1275)
('21-03-08 00:43:14.23077', 1001, 111, 1170, 706, 46, 59, 1247, 1202)
('21-03-08 00:43:14.24922', 916, 114, 1270, 700, 56, 58, 1207, 1312)
('21-03-08 00:43:14.27164', 899, 109, 1143, 693, 60, 54, 1133, 1345)
('21-03-08 00:43:14.28819', 936, 100, 1343, 721, 60, 54, 948, 1315)
('21-03-08 00:43:14.30945', 860, 97, 1243, 806, 57, 57, 1068, 1189)
('21-03-08 00:43:14.33194', 772, 72, 1150, 719, 61, 55, 1100, 916)
('21-03-08 00:43:14.35042', 857, 58, 956, 683, 61, 50, 1063, 449)
('21-03-08 00:43:14.37211', 898, 67, 824, 656, 70, 57, 976, 651)
('21-03-08 00:43:14.39215', 813, 75, 411, 648, 92, 62, 823, 727)
('21-03-08 00:43:14.41420', 766, 71, 592, 451, 102, 69, 358, 837)
('21-03-08 00:43:14.42947', 757, 74, 657, 418, 103, 69, 179, 1040)
('21-03-08 00:43:14.45152', 635, 72, 721, 445, 103, 71, 661, 1094)
('21-03-08 00:43:14.47474', 682, 62, 738, 459, 103, 68, 858, 1050)
('21-03-08 00:43:14.49085', 793, 57, 718, 416, 84, 89, 1082, 1185)
('21-03-08 00:43:14.51308', 894, 57, 619, 416, 76, 90, 1108, 1189)
('21-03-08 00:43:14.53473', 850, 48, 534, 400, 76, 91, 1177, 1053)
('21-03-08 00:43:14.54920', 873, 51, 537, 347, 76, 96, 1099, 1017)
('21-03-08 00:43:14.57399', 755, 50, 539, 301, 73, 97, 999, 875)
('21-03-08 00:43:14.59452', 628, 47, 629, 284, 72, 75, 871, 700)
('21-03-08 00:43:14.60917', 406, 47, 704, 297, 67, 65, 1038, 630)
('21-03-08 00:43:14.63294', 400, 51, 821, 384, 67, 68, 1019, 664)
('21-03-08 00:43:14.65489', 386, 51, 923, 388, 60, 60, 964, 752)
