('21-03-08 00:33:27.03819', 315, 248, 237, 211, 245, 212, 258, '33')
('21-03-08 00:33:27.05224', 261, 205, 199, 175, 196, 176, 212, '26')
('21-03-08 00:33:27.07529', 207, 167, 161, 143, 159, 142, 174, '20')
('21-03-08 00:33:27.09723', 163, 131, 135, 126, 142, 120, 141, '16')
('21-03-08 00:33:27.11184', 110, 97, 96, 87, 101, 86, 103, '10')
('21-03-08 00:33:27.13483', 76, 71, 71, 77, 84, 70, 82, '8')
('21-03-08 00:33:27.15788', 72, 67, 64, 67, 82, 67, 76, '7')
('21-03-08 00:33:27.17315', 66, 66, 60, 67, 79, 68, 69, '7')
('21-03-08 00:33:27.19656', 62, 62, 56, 63, 72, 60, 62, '6')
('21-03-08 00:33:27.22552', 56, 56, 51, 63, 78, 51, 54, '6')
('21-03-08 00:33:27.23222', 58, 58, 51, 66, 83, 52, 48, '5')
('21-03-08 00:33:27.25465', 54, 58, 51, 63, 81, 51, 48, '6')
('21-03-08 00:33:27.27802', 52, 54, 50, 57, 80, 53, 45, '5')
('21-03-08 00:33:27.29521', 49, 58, 55, 65, 80, 58, 43, '4')
('21-03-08 00:33:27.31442', 54, 63, 58, 65, 72, 57, 41, '4')
('21-03-08 00:33:27.33869', 49, 60, 57, 61, 67, 55, 41, '5')
('21-03-08 00:33:27.36129', 50, 64, 58, 62, 70, 57, 39, '5')
('21-03-08 00:33:27.37565', 53, 66, 57, 64, 76, 60, 42, '5')
('21-03-08 00:33:27.39730', 54, 66, 55, 59, 71, 54, 54, '5')
('21-03-08 00:33:27.42146', 49, 62, 56, 65, 82, 57, 57, '5')
('21-03-08 00:33:27.43432', 52, 69, 59, 68, 78, 60, 58, '5')
('21-03-08 00:33:27.45800', 52, 63, 57, 68, 83, 60, 59, '5')
('21-03-08 00:33:27.48038', 55, 63, 58, 75, 80, 61, 60, '5')
('21-03-08 00:33:27.49524', 55, 63, 57, 73, 81, 62, 51, '5')
('21-03-08 00:33:27.51831', 57, 68, 57, 71, 74, 64, 53, '6')
('21-03-08 00:33:27.54052', 54, 64, 54, 69, 84, 61, 50, '5')
('21-03-08 00:33:27.55561', 53, 69, 54, 71, 80, 64, 53, '6')
('21-03-08 00:33:27.57872', 51, 69, 53, 63, 79, 59, 49, '6')
('21-03-08 00:33:27.60058', 52, 66, 51, 64, 90, 61, 54, '6')
('21-03-08 00:33:27.61443', 51, 58, 47, 61, 94, 61, 51, '5')
('21-03-08 00:33:27.63746', 57, 58, 49, 58, 89, 59, 56, '5')
('21-03-08 00:33:27.66153', 59, 51, 46, 55, 95, 60, 55, '5')
('21-03-08 00:33:27.67662', 56, 52, 56, 57, 97, 59, 57, '5')
('21-03-08 00:33:27.70555', 60, 55, 57, 58, 91, 59, 51, '6')
('21-03-08 00:33:27.72050', 60, 56, 57, 55, 90, 60, 56, '6')
('21-03-08 00:33:27.73468', 59, 55, 59, 58, 88, 61, 53, '6')
('21-03-08 00:33:27.75843', 59, 57, 60, 57, 77, 59, 53, '6')
('21-03-08 00:33:27.78070', 58, 57, 52, 59, 81, 60, 51, '6')
('21-03-08 00:33:27.79578', 57, 57, 51, 58, 82, 62, 53, '5')
('21-03-08 00:33:27.81712', 58, 58, 59, 59, 78, 60, 48, '6')
('21-03-08 00:33:27.84147', 52, 55, 53, 60, 83, 62, 47, '5')
('21-03-08 00:33:27.85450', 51, 52, 54, 60, 84, 60, 46, '5')
('21-03-08 00:33:27.87737', 53, 48, 53, 60, 78, 60, 47, '6')
('21-03-08 00:33:27.90052', 49, 47, 54, 58, 69, 54, 50, '6')
('21-03-08 00:33:27.91454', 47, 45, 45, 57, 69, 49, 50, '6')
('21-03-08 00:33:27.94509', 50, 50, 49, 57, 64, 46, 48, '6')
('21-03-08 00:33:27.96034', 49, 57, 49, 59, 63, 48, 48, '6')
('21-03-08 00:33:27.98317', 53, 58, 54, 57, 64, 49, 52, '5')
('21-03-08 00:33:28.00577', 58, 58, 53, 57, 68, 51, 51, '5')
('21-03-08 00:33:28.02048', 59, 56, 54, 61, 70, 52, 49, '5')
('21-03-08 00:33:28.04378', 61, 52, 52, 65, 75, 54, 51, '5')
('21-03-08 00:33:28.06592', 61, 46, 52, 64, 82, 52, 51, '6')
('21-03-08 00:33:28.08145', 62, 43, 48, 63, 81, 50, 45, '6')
('21-03-08 00:33:28.10285', 60, 47, 50, 62, 80, 52, 44, '6')
('21-03-08 00:33:28.12581', 59, 51, 56, 59, 79, 49, 48, '6')
('21-03-08 00:33:28.13984', 61, 55, 57, 53, 78, 50, 51, '7')
('21-03-08 00:33:28.16276', 58, 57, 60, 52, 75, 47, 50, '6')
('21-03-08 00:33:28.18550', 55, 59, 58, 54, 74, 49, 50, '5')
('21-03-08 00:33:28.19949', 53, 57, 56, 62, 78, 54, 50, '6')
('21-03-08 00:33:28.22424', 53, 56, 53, 67, 78, 62, 54, '6')
('21-03-08 00:33:28.24594', 46, 53, 53, 64, 78, 62, 56, '5')
('21-03-08 00:33:28.25961', 53, 54, 49, 65, 81, 65, 55, '5')
('21-03-08 00:33:28.28343', 55, 54, 54, 65, 80, 64, 55, '6')
('21-03-08 00:33:28.30518', 55, 52, 55, 59, 73, 59, 54, '5')
('21-03-08 00:33:28.31947', 52, 53, 51, 53, 74, 61, 50, '6')
('21-03-08 00:33:28.34406', 61, 55, 49, 57, 69, 61, 46, '6')
('21-03-08 00:33:28.36533', 58, 50, 50, 57, 69, 56, 47, '5')
('21-03-08 00:33:28.37957', 57, 51, 48, 61, 75, 58, 48, '5')
('21-03-08 00:33:28.41021', 58, 53, 47, 63, 100, 54, 51, '5')
('21-03-08 00:33:28.42557', 61, 59, 50, 65, 102, 43, 54, '5')
('21-03-08 00:33:28.44093', 52, 58, 49, 61, 102, 40, 54, '5')
('21-03-08 00:33:28.46300', 56, 63, 48, 59, 101, 43, 54, '5')
('21-03-08 00:33:28.48548', 54, 62, 46, 54, 98, 43, 57, '5')
('21-03-08 00:33:28.49933', 55, 64, 48, 54, 75, 49, 53, '5')
('21-03-08 00:33:28.52444', 53, 58, 49, 55, 77, 56, 52, '5')
('21-03-08 00:33:28.54553', 54, 60, 48, 57, 78, 60, 50, '5')
('21-03-08 00:33:28.55940', 54, 60, 48, 69, 83, 60, 50, '5')
('21-03-08 00:33:28.58395', 56, 59, 49, 70, 82, 59, 49, '5')
('21-03-08 00:33:28.60565', 53, 56, 47, 68, 84, 59, 53, '5')
('21-03-08 00:33:28.62029', 52, 54, 43, 69, 75, 52, 49, '5')
('21-03-08 00:33:28.64295', 59, 51, 48, 68, 75, 53, 53, '5')
('21-03-08 00:33:28.66554', 60, 46, 48, 57, 69, 54, 53, '5')
('21-03-08 00:33:28.68014', 57, 50, 49, 58, 68, 54, 50, '6')
('21-03-08 00:33:28.70307', 62, 50, 48, 68, 76, 55, 51, '6')
('21-03-08 00:33:28.72689', 61, 52, 51, 63, 78, 59, 47, '7')
('21-03-08 00:33:28.75007', 63, 54, 45, 61, 76, 54, 46, '6')
('21-03-08 00:33:28.76255', 58, 56, 49, 62, 71, 54, 48, '6')
('21-03-08 00:33:28.78589', 63, 58, 48, 62, 77, 51, 55, '6')
('21-03-08 00:33:28.80806', 59, 58, 49, 51, 68, 45, 50, '5')
('21-03-08 00:33:28.82493', 61, 55, 50, 56, 66, 42, 56, '4')
('21-03-08 00:33:28.84560', 53, 56, 55, 57, 81, 46, 60, '4')
('21-03-08 00:33:28.86782', 50, 55, 50, 56, 87, 46, 59, '5')
('21-03-08 00:33:28.88300', 44, 52, 58, 59, 91, 54, 55, '5')
('21-03-08 00:33:28.90523', 46, 51, 58, 57, 93, 55, 56, '5')
('21-03-08 00:33:28.92860', 43, 56, 62, 58, 98, 58, 55, '6')
('21-03-08 00:33:28.94361', 54, 54, 62, 59, 91, 53, 54, '5')
('21-03-08 00:33:28.96529', 57, 50, 64, 61, 91, 58, 54, '5')
('21-03-08 00:33:28.98914', 59, 53, 61, 56, 85, 52, 52, '5')
('21-03-08 00:33:29.00346', 63, 55, 61, 61, 84, 57, 60, '5')
('21-03-08 00:33:29.02708', 64, 52, 56, 65, 84, 58, 58, '4')
('21-03-08 00:33:29.04802', 58, 50, 54, 67, 85, 65, 58, '4')
('21-03-08 00:33:29.06270', 57, 54, 50, 66, 84, 59, 58, '5')
('21-03-08 00:33:29.08622', 58, 51, 45, 65, 80, 62, 60, '5')
('21-03-08 00:33:29.10933', 57, 53, 43, 70, 77, 61, 53, '6')
('21-03-08 00:33:29.12327', 58, 51, 40, 67, 79, 55, 54, '6')
('21-03-08 00:33:29.14847', 56, 52, 36, 64, 74, 52, 53, '6')
('21-03-08 00:33:29.16774', 56, 51, 40, 66, 71, 53, 56, '6')
('21-03-08 00:33:29.18261', 54, 51, 40, 70, 78, 58, 54, '6')
('21-03-08 00:33:29.20529', 56, 48, 43, 61, 75, 57, 55, '5')
('21-03-08 00:33:29.22853', 56, 51, 49, 58, 66, 58, 56, '5')
('21-03-08 00:33:29.24237', 56, 50, 56, 57, 67, 56, 53, '6')
('21-03-08 00:33:29.26545', 55, 56, 57, 55, 70, 56, 51, '5')
('21-03-08 00:33:29.28810', 63, 62, 62, 52, 67, 49, 51, '5')
('21-03-08 00:33:29.30221', 59, 59, 59, 53, 73, 46, 53, '5')
('21-03-08 00:33:29.32528', 62, 58, 58, 53, 72, 47, 53, '5')
('21-03-08 00:33:29.34888', 63, 59, 55, 54, 68, 47, 53, '5')
('21-03-08 00:33:29.36434', 63, 56, 57, 53, 67, 50, 53, '6')
('21-03-08 00:33:29.38642', 54, 54, 54, 55, 69, 50, 53, '6')
('21-03-08 00:33:29.40821', 53, 57, 57, 62, 73, 53, 51, '7')
('21-03-08 00:33:29.42296', 52, 63, 55, 64, 76, 53, 51, '6')
('21-03-08 00:33:29.44533', 50, 63, 59, 63, 75, 54, 54, '6')
('21-03-08 00:33:29.46817', 52, 63, 55, 63, 75, 54, 52, '6')
('21-03-08 00:33:29.48193', 52, 61, 54, 62, 71, 54, 55, '6')
('21-03-08 00:33:29.50700', 60, 63, 56, 59, 64, 54, 55, '5')
('21-03-08 00:33:29.52789', 52, 60, 56, 53, 64, 57, 55, '5')
('21-03-08 00:33:29.54217', 55, 60, 54, 65, 78, 58, 60, '5')
('21-03-08 00:33:29.56594', 56, 61, 57, 74, 89, 60, 60, '5')
('21-03-08 00:33:29.58893', 59, 60, 57, 74, 92, 58, 55, '5')
('21-03-08 00:33:29.60265', 58, 59, 55, 71, 100, 58, 53, '5')
('21-03-08 00:33:29.62569', 62, 53, 55, 71, 98, 61, 52, '5')
('21-03-08 00:33:29.64832', 59, 52, 55, 60, 90, 58, 43, '5')
('21-03-08 00:33:29.66198', 57, 49, 56, 48, 77, 51, 45, '5')
('21-03-08 00:33:29.68658', 54, 49, 56, 53, 77, 59, 49, '5')
('21-03-08 00:33:29.70832', 47, 50, 56, 55, 68, 58, 54, '5')
('21-03-08 00:33:29.73044', 48, 55, 56, 62, 79, 58, 53, '5')
('21-03-08 00:33:29.74632', 47, 54, 52, 64, 79, 58, 56, '5')
('21-03-08 00:33:29.76886', 50, 54, 50, 68, 83, 59, 55, '5')
('21-03-08 00:33:29.79206', 50, 57, 48, 65, 82, 56, 55, '5')
('21-03-08 00:33:29.80567', 55, 56, 52, 69, 81, 56, 50, '5')
('21-03-08 00:33:29.82942', 56, 53, 50, 66, 74, 49, 53, '6')
('21-03-08 00:33:29.85044', 59, 55, 51, 64, 71, 51, 53, '6')
('21-03-08 00:33:29.86518', 60, 55, 55, 65, 71, 49, 52, '5')
('21-03-08 00:33:29.88893', 59, 54, 58, 65, 70, 48, 49, '5')
('21-03-08 00:33:29.91187', 57, 52, 55, 61, 77, 54, 55, '5')
('21-03-08 00:33:29.92626', 54, 52, 55, 59, 77, 59, 53, '6')
('21-03-08 00:33:29.94900', 54, 55, 56, 61, 79, 60, 52, '6')
('21-03-08 00:33:29.97074', 49, 59, 54, 56, 78, 61, 55, '7')
('21-03-08 00:33:29.98490', 54, 56, 55, 55, 74, 58, 57, '6')
('21-03-08 00:33:30.00961', 56, 65, 56, 64, 73, 57, 58, '7')
('21-03-08 00:33:30.03016', 55, 66, 55, 64, 79, 56, 59, '6')
('21-03-08 00:33:30.04492', 60, 63, 55, 75, 84, 53, 60, '6')
('21-03-08 00:33:30.06863', 62, 60, 51, 79, 88, 54, 64, '6')
('21-03-08 00:33:30.09167', 63, 61, 50, 78, 90, 53, 62, '6')
('21-03-08 00:33:30.12140', 63, 55, 48, 74, 89, 48, 57, '6')
('21-03-08 00:33:30.12854', 61, 52, 50, 72, 83, 48, 53, '6')
('21-03-08 00:33:30.15065', 60, 50, 55, 62, 76, 57, 51, '5')
('21-03-08 00:33:30.16615', 62, 51, 55, 55, 70, 56, 43, '6')
('21-03-08 00:33:30.18811', 59, 51, 52, 57, 65, 60, 43, '6')
('21-03-08 00:33:30.21036', 57, 52, 51, 55, 68, 60, 45, '6')
('21-03-08 00:33:30.23299', 61, 56, 53, 54, 65, 58, 50, '6')
('21-03-08 00:33:30.24974', 53, 57, 49, 51, 61, 49, 53, '6')
('21-03-08 00:33:30.27159', 51, 64, 53, 55, 61, 47, 57, '5')
('21-03-08 00:33:30.28482', 53, 68, 58, 58, 75, 50, 58, '5')
('21-03-08 00:33:30.30805', 49, 63, 59, 58, 71, 49, 58, '6')
('21-03-08 00:33:30.33021', 50, 65, 58, 59, 76, 49, 55, '5')
('21-03-08 00:33:30.33059', 50, 65, 58, 59, 76, 49, 55, '5')
